-10.361
-10.358
-10.357
-10.356
-10.355
-10.353
-10.349
-10.344
-10.342
-10.338
-10.338
-10.34
-10.343
-10.345
-10.344
-10.344
-10.345
-10.346
-10.343
-10.345
-10.346
-10.347
-10.345
-10.344
-10.344
-10.342
-10.345
-10.348
-10.354
-10.358
-10.359
-10.358
-10.355
-10.365
-10.369
-10.367
-10.361
-10.356
-10.356
-10.355
-10.353
-10.353
-10.353
-10.353
-10.357
-10.359
-10.36
-10.358
-10.352
-10.347
-10.343
-10.343
-10.346
-10.349
-10.352
-10.352
-10.35
-10.349
-10.347
-10.347
-10.348
-10.348
-10.349
-10.35
-10.351
-10.354
-10.354
-10.355
-10.355
-10.353
-10.354
-10.355
-10.354
-10.351
-10.351
-10.349
-10.349
-10.35
-10.349
-10.35
-10.352
-10.354
-10.356
-10.36
-10.368
-10.372
-10.367
-10.364
-10.36
-10.356
-10.353
-10.349
-10.345
-10.347
-10.352
-10.352
-10.356
-10.356
-10.352
-10.356
-10.36
-10.367
-10.365
-10.362
-10.361
-10.36
-10.36
-10.358
-10.356
-10.353
-10.353
-10.353
-10.354
-10.363
-10.377
-10.377
-10.369
-10.363
-10.357
-10.355
-10.349
-10.344
-10.343
-10.347
-10.346
-10.35
-10.351
-10.351
-10.353
-10.355
-10.358
-10.353
-10.35
-10.348
-10.348
-10.347
-10.348
-10.35
-10.355
-10.357
-10.359
-10.362
-10.364
-10.363
-10.362
-10.362
-10.362
-10.359
-10.355
-10.355
-10.355
-10.352
-10.35
-10.349
-10.349
-10.347
-10.347
-10.345
-10.345
-10.342
-10.343
-10.345
-10.347
-10.348
-10.352
-10.353
-10.357
-10.359
-10.36
-10.361
-10.362
-10.362
-10.361
-10.362
-10.359
-10.358
-10.358
-10.359
-10.358
-10.358
-10.359
-10.359
-10.357
-10.355
-10.354
-10.352
-10.352
-10.352
-10.355
-10.359
-10.361
-10.359
-10.359
-10.359
-10.357
-10.359
-10.358
-10.357
-10.359
-10.36
-10.36
-10.36
-10.358
-10.361
-10.358
-10.357
-10.359
-10.359
-10.357
-10.361
-10.363
-10.361
-10.366
-10.376
-10.375
-10.371
-10.365
-10.362
-10.362
-10.365
-10.367
-10.363
-10.368
-10.368
-10.37
-10.376
-10.386
-10.388
-10.38
-10.371
-10.359
-10.353
-10.349
-10.347
-10.35
-10.35
-10.35
-10.354
-10.356
-10.36
-10.364
-10.365
-10.365
-10.364
-10.362
-10.359
-10.358
-10.357
-10.357
-10.357
-10.352
-10.351
-10.35
-10.353
-10.357
-10.357
-10.356
-10.359
-10.362
-10.363
-10.362
-10.362
-10.361
-10.363
-10.37
-10.382
-10.38
-10.373
-10.366
-10.358
-10.357
-10.355
-10.348
-10.349
-10.349
-10.348
-10.35
-10.353
-10.358
-10.36
-10.361
-10.365
-10.371
-10.371
-10.37
-10.367
-10.367
-10.366
-10.366
-10.361
-10.359
-10.359
-10.359
-10.362
-10.374
-10.379
-10.376
-10.374
-10.371
-10.37
-10.366
-10.364
-10.364
-10.363
-10.364
-10.363
-10.361
-10.359
-10.357
-10.354
-10.356
-10.356
-10.362
-10.368
-10.367
-10.365
-10.365
-10.363
-10.363
-10.361
-10.356
-10.361
-10.363
-10.361
-10.362
-10.366
-10.365
-10.366
-10.364
-10.362
-10.363
-10.363
-10.362
-10.363
-10.363
-10.365
-10.367
-10.365
-10.363
-10.363
-10.365
-10.365
-10.364
-10.364
-10.361
-10.361
-10.363
-10.363
-10.361
-10.362
-10.366
-10.367
-10.366
-10.366
-10.369
-10.371
-10.371
-10.37
-10.367
-10.368
-10.368
-10.365
-10.364
-10.363
-10.362
-10.364
-10.366
-10.371
-10.376
-10.377
-10.375
-10.374
-10.374
-10.374
-10.371
-10.37
-10.368
-10.369
-10.37
-10.37
-10.374
-10.373
-10.376
-10.374
-10.372
-10.368
-10.363
-10.361
-10.365
-10.371
-10.38
-10.387
-10.38
-10.373
-10.369
-10.365
-10.364
-10.36
-10.363
-10.36
-10.358
-10.357
-10.356
-10.357
-10.356
-10.354
-10.354
-10.356
-10.363
-10.374
-10.377
-10.372
-10.37
-10.368
-10.368
-10.367
-10.368
-10.371
-10.371
-10.368
-10.369
-10.377
-10.379
-10.383
-10.388
-10.386
-10.383
-10.374
-10.367
-10.37
-10.37
-10.369
-10.368
-10.37
-10.373
-10.375
-10.377
-10.378
-10.376
-10.373
-10.371
-10.374
-10.375
-10.376
-10.375
-10.373
-10.371
-10.367
-10.36
-10.356
-10.357
-10.36
-10.361
-10.362
-10.364
-10.365
-10.364
-10.364
-10.365
-10.37
-10.372
-10.371
-10.371
-10.367
-10.367
-10.37
-10.371
-10.37
-10.371
-10.375
-10.376
-10.38
-10.377
-10.374
-10.372
-10.371
-10.371
-10.37
-10.368
-10.372
-10.372
-10.371
-10.368
-10.365
-10.366
-10.365
-10.363
-10.375
-10.384
-10.384
-10.381
-10.375
-10.373
-10.377
-10.377
-10.375
-10.373
-10.371
-10.367
-10.363
-10.36
-10.36
-10.361
-10.363
-10.362
-10.364
-10.366
-10.372
-10.374
-10.374
-10.375
-10.374
-10.375
-10.375
-10.373
-10.373
-10.372
-10.371
-10.372
-10.373
-10.384
-10.394
-10.393
-10.387
-10.386
-10.381
-10.382
-10.38
-10.377
-10.377
-10.375
-10.372
-10.373
-10.379
-10.375
-10.373
-10.374
-10.371
-10.367
-10.366
-10.364
-10.368
-10.372
-10.371
-10.373
-10.377
-10.379
-10.378
-10.374
-10.375
-10.373
-10.373
-10.374
-10.376
-10.372
-10.373
-10.374
-10.378
-10.38
-10.381
-10.382
-10.38
-10.378
-10.378
-10.381
-10.376
-10.374
-10.375
-10.381
-10.38
-10.379
-10.379
-10.375
-10.378
-10.378
-10.373
-10.373
-10.371
-10.373
-10.375
-10.379
-10.384
-10.382
-10.381
-10.378
-10.375
-10.371
-10.369
-10.368
-10.368
-10.37
-10.371
-10.372
-10.37
-10.368
-10.369
-10.371
-10.372
-10.372
-10.373
-10.376
-10.376
-10.374
-10.374
-10.373
-10.375
-10.379
-10.38
-10.38
-10.38
-10.38
-10.378
-10.38
-10.382
-10.386
-10.389
-10.394
-10.393
-10.39
-10.388
-10.384
-10.381
-10.382
-10.378
-10.376
-10.382
-10.381
-10.382
-10.388
-10.391
-10.388
-10.38
-10.38
-10.38
-10.376
-10.371
-10.372
-10.373
-10.373
-10.378
-10.376
-10.376
-10.379
-10.379
-10.38
-10.379
-10.384
-10.383
-10.38
-10.376
-10.374
-10.374
-10.377
-10.378
-10.378
-10.379
-10.379
-10.378
-10.379
-10.379
-10.378
-10.381
-10.379
-10.38
-10.378
-10.381
-10.386
-10.383
-10.381
-10.383
-10.383
-10.384
-10.381
-10.381
-10.379
-10.378
-10.375
-10.375
-10.374
-10.385
-10.403
-10.406
-10.399
-10.393
-10.386
-10.381
-10.378
-10.376
-10.374
-10.373
-10.377
-10.379
-10.38
-10.38
-10.379
-10.378
-10.379
-10.379
-10.382
-10.381
-10.38
-10.382
-10.383
-10.381
-10.38
-10.379
-10.379
-10.379
-10.379
-10.378
-10.379
-10.38
-10.377
-10.379
-10.383
-10.38
-10.382
-10.381
-10.381
-10.382
-10.383
-10.382
-10.378
-10.377
-10.378
-10.378
-10.38
-10.383
-10.387
-10.386
-10.39
-10.388
-10.389
-10.391
-10.394
-10.392
-10.394
-10.397
-10.394
-10.392
-10.392
-10.399
-10.401
-10.395
-10.389
-10.387
-10.384
-10.381
-10.382
-10.384
-10.386
-10.385
-10.383
-10.38
-10.374
-10.374
-10.373
-10.37
-10.377
-10.377
-10.378
-10.378
-10.377
-10.376
-10.379
-10.382
-10.386
-10.398
-10.405
-10.401
-10.397
-10.394
-10.394
-10.397
-10.404
-10.413
-10.405
-10.396
-10.386
-10.384
-10.382
-10.381
-10.377
-10.374
-10.375
-10.375
-10.377
-10.381
-10.384
-10.389
-10.388
-10.389
-10.386
-10.386
-10.385
-10.387
-10.39
-10.388
-10.387
-10.384
-10.384
-10.385
-10.384
-10.385
-10.384
-10.381
-10.385
-10.385
-10.386
-10.388
-10.387
-10.386
-10.386
-10.386
-10.387
-10.382
-10.383
-10.382
-10.383
-10.387
-10.387
-10.383
-10.382
-10.384
-10.382
-10.382
-10.383
-10.393
-10.394
-10.387
-10.385
-10.379
-10.382
-10.39
-10.39
-10.386
-10.383
-10.38
-10.381
-10.385
-10.389
-10.392
-10.394
-10.397
-10.398
-10.397
-10.396
-10.396
-10.397
-10.396
-10.396
-10.395
-10.393
-10.391
-10.392
-10.393
-10.391
-10.387
-10.385
-10.38
-10.382
-10.384
-10.385
-10.383
-10.385
-10.386
-10.384
-10.385
-10.387
-10.385
-10.387
-10.393
-10.412
-10.415
-10.405
-10.398
-10.389
-10.386
-10.387
-10.389
-10.389
-10.387
-10.387
-10.386
-10.385
-10.384
-10.386
-10.384
-10.384
-10.383
-10.385
-10.387
-10.39
-10.39
-10.392
-10.4
-10.401
-10.402
-10.4
-10.396
-10.391
-10.387
-10.386
-10.386
-10.385
-10.387
-10.387
-10.386
-10.384
-10.382
-10.384
-10.385
-10.386
-10.386
-10.385
-10.388
-10.388
-10.39
-10.395
-10.399
-10.397
-10.395
-10.399
-10.4
-10.403
-10.41
-10.409
-10.402
-10.394
-10.389
-10.386
-10.383
-10.383
-10.381
-10.379
-10.38
-10.387
-10.396
-10.4
-10.402
-10.398
-10.399
-10.396
-10.396
-10.392
-10.393
-10.396
-10.4
-10.398
-10.393
-10.389
-10.386
-10.388
-10.389
-10.392
-10.393
-10.391
-10.393
-10.394
-10.393
-10.392
-10.392
-10.395
-10.399
-10.403
-10.404
-10.405
-10.407
-10.405
-10.405
-10.405
-10.404
-10.402
-10.395
-10.39
-10.389
-10.386
-10.385
-10.384
-10.382
-10.384
-10.383
-10.389
-10.389
-10.389
-10.389
-10.395
-10.399
-10.397
-10.396
-10.395
-10.395
-10.396
-10.397
-10.397
-10.398
-10.396
-10.396
-10.393
-10.397
-10.401
-10.4
-10.398
-10.398
-10.397
-10.396
-10.399
-10.397
-10.396
-10.397
-10.397
-10.395
-10.393
-10.391
-10.388
-10.384
-10.384
-10.389
-10.397
-10.409
-10.414
-10.412
-10.41
-10.403
-10.401
-10.402
-10.401
-10.402
-10.397
-10.398
-10.394
-10.393
-10.394
-10.401
-10.411
-10.414
-10.407
-10.4
-10.39
-10.387
-10.387
-10.383
-10.385
-10.387
-10.386
-10.389
-10.39
-10.389
-10.39
-10.389
-10.389
-10.392
-10.396
-10.397
-10.397
-10.401
-10.404
-10.403
-10.401
-10.402
-10.401
-10.403
-10.404
-10.403
-10.403
-10.401
-10.402
-10.401
-10.397
-10.398
-10.396
-10.396
-10.4
-10.403
-10.401
-10.399
-10.4
-10.401
-10.399
-10.397
-10.396
-10.397
-10.394
-10.392
-10.395
-10.397
-10.396
-10.396
-10.4
-10.401
-10.4
-10.401
-10.4
-10.399
-10.398
-10.402
-10.402
-10.399
-10.398
-10.397
-10.398
-10.396
-10.395
-10.395
-10.397
-10.394
-10.395
-10.402
-10.413
-10.414
-10.409
-10.408
-10.409
-10.42
-10.42
-10.416
-10.409
-10.406
-10.403
-10.402
-10.402
-10.403
-10.399
-10.399
-10.397
-10.401
-10.4
-10.398
-10.4
-10.403
-10.407
-10.406
-10.406
-10.407
-10.402
-10.396
-10.393
-10.392
-10.393
-10.394
-10.397
-10.401
-10.398
-10.399
-10.398
-10.4
-10.406
-10.414
-10.411
-10.407
-10.404
-10.399
-10.397
-10.399
-10.401
-10.398
-10.399
-10.4
-10.401
-10.405
-10.404
-10.403
-10.401
-10.402
-10.398
-10.396
-10.393
-10.394
-10.399
-10.401
-10.399
-10.397
-10.4
-10.402
-10.402
-10.404
-10.407
-10.408
-10.409
-10.409
-10.41
-10.408
-10.408
-10.409
-10.411
-10.412
-10.41
-10.406
-10.403
-10.4
-10.398
-10.398
-10.401
-10.403
-10.403
-10.402
-10.399
-10.398
-10.399
-10.401
-10.403
-10.411
-10.416
-10.412
-10.409
-10.402
-10.397
-10.398
-10.399
-10.401
-10.404
-10.407
-10.407
-10.409
-10.407
-10.411
-10.412
-10.41
-10.408
-10.409
-10.404
-10.401
-10.398
-10.398
-10.4
-10.402
-10.411
-10.419
-10.418
-10.418
-10.414
-10.411
-10.409
-10.408
-10.406
-10.403
-10.399
-10.399
-10.402
-10.402
-10.402
-10.403
-10.405
-10.403
-10.403
-10.409
-10.408
-10.407
-10.408
-10.409
-10.407
-10.407
-10.407
-10.408
-10.409
-10.409
-10.407
-10.407
-10.406
-10.407
-10.405
-10.406
-10.409
-10.409
-10.408
-10.408
-10.412
-10.416
-10.415
-10.415
-10.413
-10.411
-10.41
-10.41
-10.408
-10.408
-10.415
-10.422
-10.419
-10.419
-10.415
-10.414
-10.413
-10.41
-10.41
-10.411
-10.406
-10.404
-10.404
-10.404
-10.403
-10.401
-10.404
-10.407
-10.416
-10.432
-10.432
-10.424
-10.424
-10.425
-10.418
-10.413
-10.412
-10.406
-10.403
-10.401
-10.399
-10.398
-10.397
-10.397
-10.396
-10.399
-10.405
-10.407
-10.405
-10.408
-10.411
-10.41
-10.411
-10.414
-10.413
-10.414
-10.412
-10.407
-10.406
-10.41
-10.411
-10.413
-10.422
-10.423
-10.42
-10.422
-10.419
-10.417
-10.413
-10.412
-10.411
-10.408
-10.407
-10.405
-10.406
-10.407
-10.404
-10.406
-10.406
-10.407
-10.408
-10.407
-10.413
-10.417
-10.417
-10.416
-10.413
-10.412
-10.409
-10.408
-10.41
-10.409
-10.411
-10.411
-10.411
-10.411
-10.414
-10.411
-10.411
-10.411
-10.408
-10.405
-10.401
-10.401
-10.409
-10.411
-10.415
-10.426
-10.433
-10.432
-10.427
-10.425
-10.421
-10.419
-10.418
-10.421
-10.423
-10.419
-10.418
-10.415
-10.414
-10.412
-10.412
-10.413
-10.415
-10.413
-10.412
-10.412
-10.413
-10.41
-10.41
-10.409
-10.408
-10.41
-10.41
-10.408
-10.407
-10.407
-10.411
-10.411
-10.413
-10.421
-10.427
-10.422
-10.42
-10.419
-10.416
-10.415
-10.416
-10.414
-10.414
-10.415
-10.416
-10.416
-10.414
-10.414
-10.416
-10.417
-10.417
-10.417
-10.418
-10.418
-10.419
-10.416
-10.416
-10.413
-10.413
-10.414
-10.412
-10.41
-10.411
-10.408
-10.41
-10.413
-10.413
-10.417
-10.415
-10.416
-10.419
-10.416
-10.415
-10.414
-10.416
-10.417
-10.417
-10.422
-10.422
-10.424
-10.423
-10.422
-10.424
-10.422
-10.421
-10.421
-10.416
-10.414
-10.411
-10.41
-10.413
-10.419
-10.425
-10.425
-10.423
-10.421
-10.42
-10.421
-10.422
-10.422
-10.423
-10.421
-10.418
-10.422
-10.424
-10.419
-10.418
-10.413
-10.416
-10.419
-10.424
-10.426
-10.423
-10.42
-10.417
-10.415
-10.413
-10.412
-10.415
-10.416
-10.415
-10.416
-10.413
-10.414
-10.416
-10.416
-10.417
-10.419
-10.421
-10.423
-10.422
-10.428
-10.44
-10.434
-10.431
-10.437
-10.436
-10.431
-10.426
-10.421
-10.416
-10.415
-10.418
-10.418
-10.425
-10.428
-10.423
-10.42
-10.417
-10.413
-10.412
-10.412
-10.413
-10.416
-10.415
-10.415
-10.417
-10.414
-10.412
-10.413
-10.414
-10.413
-10.413
-10.413
-10.412
-10.413
-10.414
-10.413
-10.414
-10.415
-10.414
-10.418
-10.421
-10.424
-10.426
-10.428
-10.433
-10.43
-10.428
-10.428
-10.426
-10.423
-10.421
-10.422
-10.421
-10.417
-10.42
-10.419
-10.42
-10.42
-10.423
-10.426
-10.43
-10.432
-10.434
-10.435
-10.432
-10.43
-10.429
-10.434
-10.434
-10.433
-10.435
-10.437
-10.432
-10.427
-10.424
-10.423
-10.423
-10.422
-10.42
-10.418
-10.418
-10.419
-10.419
-10.42
-10.421
-10.419
-10.416
-10.415
-10.418
-10.419
-10.418
-10.418
-10.418
-10.419
-10.419
-10.422
-10.424
-10.426
-10.437
-10.445
-10.448
-10.442
-10.433
-10.426
-10.425
-10.422
-10.425
-10.427
-10.428
-10.429
-10.427
-10.428
-10.425
-10.426
-10.425
-10.424
-10.423
-10.424
-10.423
-10.424
-10.424
-10.426
-10.426
-10.425
-10.424
-10.425
-10.427
-10.423
-10.424
-10.43
-10.441
-10.439
-10.432
-10.426
-10.423
-10.421
-10.419
-10.42
-10.421
-10.423
-10.432
-10.44
-10.437
-10.432
-10.432
-10.431
-10.431
-10.433
-10.432
-10.428
-10.429
-10.425
-10.421
-10.421
-10.425
-10.428
-10.425
-10.424
-10.426
-10.424
-10.419
-10.42
-10.419
-10.42
-10.424
-10.425
-10.427
-10.429
-10.432
-10.435
-10.442
-10.447
-10.447
-10.443
-10.44
-10.437
-10.435
-10.433
-10.432
-10.429
-10.426
-10.426
-10.425
-10.424
-10.425
-10.424
-10.425
-10.427
-10.425
-10.422
-10.42
-10.419
-10.421
-10.424
-10.427
-10.426
-10.427
-10.429
-10.429
-10.43
-10.434
-10.435
-10.431
-10.431
-10.43
-10.426
-10.427
-10.427
-10.429
-10.43
-10.428
-10.429
-10.431
-10.431
-10.432
-10.434
-10.436
-10.439
-10.438
-10.432
-10.433
-10.429
-10.425
-10.426
-10.425
-10.427
-10.427
-10.429
-10.428
-10.429
-10.431
-10.43
-10.433
-10.433
-10.43
-10.424
-10.417
-10.422
-10.433
-10.442
-10.437
-10.433
-10.429
-10.426
-10.425
-10.423
-10.422
-10.422
-10.424
-10.423
-10.426
-10.43
-10.432
-10.436
-10.439
-10.439
-10.441
-10.443
-10.44
-10.437
-10.438
-10.435
-10.431
-10.429
-10.429
-10.434
-10.432
-10.433
-10.433
-10.428
-10.43
-10.427
-10.425
-10.424
-10.427
-10.428
-10.436
-10.451
-10.45
-10.448
-10.442
-10.438
-10.433
-10.429
-10.428
-10.438
-10.45
-10.449
-10.442
-10.437
-10.434
-10.432
-10.429
-10.426
-10.425
-10.422
-10.422
-10.418
-10.418
-10.422
-10.426
-10.429
-10.431
-10.431
-10.433
-10.436
-10.437
-10.438
-10.439
-10.439
-10.439
-10.44
-10.445
-10.446
-10.446
-10.44
-10.432
-10.427
-10.426
-10.423
-10.427
-10.428
-10.427
-10.43
-10.428
-10.431
-10.433
-10.434
-10.445
-10.455
-10.453
-10.443
-10.437
-10.435
-10.435
-10.434
-10.437
-10.435
-10.43
-10.429
-10.429
-10.431
-10.43
-10.432
-10.433
-10.433
-10.434
-10.436
-10.439
-10.437
-10.434
-10.433
-10.433
-10.434
-10.437
-10.436
-10.433
-10.435
-10.437
-10.438
-10.441
-10.444
-10.446
-10.444
-10.442
-10.441
-10.44
-10.437
-10.436
-10.436
-10.435
-10.435
-10.435
-10.434
-10.433
-10.432
-10.433
-10.438
-10.45
-10.45
-10.447
-10.446
-10.439
-10.438
-10.434
-10.433
-10.43
-10.429
-10.428
-10.425
-10.424
-10.426
-10.429
-10.429
-10.432
-10.436
-10.44
-10.443
-10.444
-10.447
-10.447
-10.445
-10.443
-10.444
-10.442
-10.436
-10.437
-10.437
-10.437
-10.438
-10.439
-10.441
-10.441
-10.443
-10.439
-10.437
-10.441
-10.443
-10.438
-10.441
-10.437
-10.439
-10.44
-10.437
-10.438
-10.443
-10.45
-10.452
-10.449
-10.448
-10.445
-10.445
-10.443
-10.442
-10.441
-10.441
-10.442
-10.443
-10.442
-10.442
-10.439
-10.439
-10.44
-10.437
-10.441
-10.44
-10.44
-10.445
-10.441
-10.443
-10.447
-10.446
-10.447
-10.447
-10.448
-10.444
-10.441
-10.44
-10.444
-10.449
-10.449
-10.453
-10.451
-10.447
-10.446
-10.442
-10.442
-10.445
-10.447
-10.447
-10.444
-10.444
-10.444
-10.444
-10.442
-10.441
-10.439
-10.438
-10.439
-10.439
-10.441
-10.444
-10.447
-10.443
-10.44
-10.44
-10.441
-10.44
-10.439
-10.439
-10.437
-10.436
-10.446
-10.455
-10.456
-10.455
-10.451
-10.446
-10.445
-10.455
-10.458
-10.45
-10.444
-10.442
-10.441
-10.44
-10.442
-10.444
-10.445
-10.444
-10.445
-10.443
-10.438
-10.442
-10.448
-10.45
-10.449
-10.45
-10.448
-10.449
-10.448
-10.443
-10.442
-10.445
-10.447
-10.458
-10.464
-10.455
-10.449
-10.446
-10.442
-10.442
-10.442
-10.441
-10.442
-10.444
-10.444
-10.443
-10.441
-10.441
-10.445
-10.447
-10.447
-10.448
-10.446
-10.444
-10.444
-10.446
-10.446
-10.45
-10.452
-10.451
-10.449
-10.446
-10.446
-10.448
-10.448
-10.448
-10.447
-10.447
-10.45
-10.452
-10.456
-10.46
-10.455
-10.452
-10.451
-10.45
-10.452
-10.451
-10.452
-10.455
-10.454
-10.453
-10.453
-10.45
-10.455
-10.456
-10.45
-10.445
-10.441
-10.436
-10.436
-10.437
-10.437
-10.438
-10.441
-10.441
-10.444
-10.445
-10.445
-10.446
-10.449
-10.452
-10.453
-10.454
-10.453
-10.454
-10.453
-10.459
-10.466
-10.47
-10.466
-10.459
-10.452
-10.45
-10.45
-10.451
-10.452
-10.449
-10.452
-10.447
-10.443
-10.441
-10.442
-10.442
-10.439
-10.438
-10.442
-10.443
-10.444
-10.446
-10.446
-10.45
-10.453
-10.455
-10.456
-10.456
-10.456
-10.455
-10.456
-10.457
-10.458
-10.459
-10.458
-10.455
-10.456
-10.457
-10.456
-10.457
-10.457
-10.454
-10.452
-10.453
-10.454
-10.454
-10.456
-10.455
-10.452
-10.451
-10.451
-10.449
-10.45
-10.447
-10.445
-10.443
-10.445
-10.448
-10.449
-10.45
-10.451
-10.453
-10.454
-10.45
-10.447
-10.447
-10.447
-10.449
-10.449
-10.449
-10.453
-10.466
-10.472
-10.466
-10.46
-10.455
-10.454
-10.453
-10.45
-10.457
-10.465
-10.464
-10.462
-10.457
-10.457
-10.451
-10.449
-10.447
-10.447
-10.449
-10.449
-10.448
-10.447
-10.446
-10.45
-10.449
-10.455
-10.463
-10.464
-10.458
-10.456
-10.454
-10.453
-10.456
-10.453
-10.451
-10.457
-10.458
-10.458
-10.462
-10.462
-10.46
-10.46
-10.457
-10.458
-10.458
-10.458
-10.458
-10.457
-10.46
-10.461
-10.461
-10.466
-10.466
-10.464
-10.461
-10.462
-10.464
-10.462
-10.463
-10.46
-10.454
-10.448
-10.448
-10.451
-10.456
-10.458
-10.46
-10.46
-10.459
-10.461
-10.458
-10.464
-10.463
-10.462
-10.46
-10.461
-10.459
-10.457
-10.457
-10.452
-10.449
-10.45
-10.453
-10.455
-10.457
-10.457
-10.458
-10.455
-10.454
-10.451
-10.45
-10.453
-10.453
-10.462
-10.469
-10.466
-10.465
-10.461
-10.459
-10.456
-10.456
-10.457
-10.46
-10.461
-10.458
-10.459
-10.46
-10.46
-10.459
-10.459
-10.46
-10.459
-10.454
-10.456
-10.455
-10.452
-10.453
-10.456
-10.459
-10.458
-10.461
-10.458
-10.458
-10.455
-10.454
-10.455
-10.453
-10.453
-10.458
-10.459
-10.46
-10.461
-10.461
-10.459
-10.462
-10.461
-10.46
-10.461
-10.461
-10.467
-10.471
-10.47
-10.47
-10.476
-10.476
-10.469
-10.464
-10.457
-10.453
-10.456
-10.455
-10.461
-10.467
-10.468
-10.47
-10.476
-10.479
-10.493
-10.499
-10.488
-10.478
-10.471
-10.463
-10.458
-10.457
-10.453
-10.449
-10.448
-10.444
-10.444
-10.443
-10.443
-10.447
-10.451
-10.455
-10.458
-10.458
-10.459
-10.465
-10.463
-10.464
-10.465
-10.466
-10.471
-10.472
-10.47
-10.467
-10.467
-10.469
-10.472
-10.467
-10.461
-10.457
-10.464
-10.465
-10.467
-10.466
-10.464
-10.46
-10.461
-10.463
-10.463
-10.463
-10.464
-10.463
-10.463
-10.458
-10.459
-10.459
-10.452
-10.45
-10.452
-10.454
-10.455
-10.457
-10.46
-10.46
-10.463
-10.469
-10.471
-10.473
-10.471
-10.469
-10.469
-10.473
-10.472
-10.47
-10.47
-10.465
-10.461
-10.463
-10.465
-10.464
-10.465
-10.464
-10.461
-10.463
-10.463
-10.464
-10.466
-10.468
-10.466
-10.464
-10.464
-10.468
-10.468
-10.464
-10.464
-10.463
-10.466
-10.465
-10.466
-10.464
-10.465
-10.467
-10.469
-10.474
-10.477
-10.476
-10.472
-10.471
-10.473
-10.473
-10.471
-10.471
-10.476
-10.479
-10.471
-10.464
-10.458
-10.455
-10.457
-10.458
-10.46
-10.459
-10.463
-10.464
-10.465
-10.467
-10.467
-10.467
-10.473
-10.474
-10.472
-10.475
-10.479
-10.477
-10.474
-10.471
-10.464
-10.461
-10.46
-10.46
-10.46
-10.463
-10.462
-10.46
-10.459
-10.461
-10.462
-10.464
-10.465
-10.465
-10.469
-10.466
-10.465
-10.467
-10.468
-10.471
-10.47
-10.467
-10.465
-10.461
-10.458
-10.461
-10.464
-10.469
-10.467
-10.466
-10.471
-10.468
-10.466
-10.468
-10.47
-10.467
-10.467
-10.468
-10.468
-10.468
-10.473
-10.474
-10.474
-10.475
-10.478
-10.477
-10.476
-10.479
-10.475
-10.474
-10.472
-10.467
-10.471
-10.471
-10.467
-10.467
-10.467
-10.469
-10.47
-10.468
-10.468
-10.471
-10.471
-10.469
-10.475
-10.479
-10.475
-10.472
-10.473
-10.472
-10.47
-10.47
-10.469
-10.468
-10.469
-10.466
-10.467
-10.465
-10.466
-10.468
-10.467
-10.471
-10.475
-10.474
-10.476
-10.479
-10.479
-10.477
-10.478
-10.478
-10.482
-10.483
-10.481
-10.48
-10.487
-10.488
-10.478
-10.47
-10.463
-10.464
-10.468
-10.464
-10.464
-10.46
-10.46
-10.461
-10.463
-10.467
-10.467
-10.464
-10.468
-10.471
-10.475
-10.474
-10.471
-10.47
-10.474
-10.475
-10.477
-10.48
-10.483
-10.482
-10.48
-10.482
-10.481
-10.481
-10.482
-10.484
-10.481
-10.476
-10.471
-10.472
-10.473
-10.474
-10.475
-10.477
-10.479
-10.479
-10.476
-10.474
-10.474
-10.474
-10.473
-10.473
-10.473
-10.471
-10.472
-10.469
-10.468
-10.468
-10.467
-10.471
-10.474
-10.474
-10.473
-10.474
-10.477
-10.481
-10.479
-10.481
-10.486
-10.482
-10.48
-10.48
-10.483
-10.483
-10.485
-10.483
-10.481
-10.481
-10.479
-10.479
-10.479
-10.473
-10.474
-10.476
-10.475
-10.481
-10.488
-10.49
-10.481
-10.475
-10.47
-10.467
-10.464
-10.464
-10.464
-10.466
-10.466
-10.468
-10.471
-10.47
-10.47
-10.475
-10.475
-10.473
-10.478
-10.49
-10.491
-10.482
-10.479
-10.477
-10.478
-10.484
-10.484
-10.479
-10.478
-10.477
-10.476
-10.476
-10.474
-10.472
-10.474
-10.475
-10.472
-10.476
-10.474
-10.475
-10.479
-10.477
-10.473
-10.474
-10.473
-10.476
-10.474
-10.476
-10.473
-10.473
-10.472
-10.471
-10.472
-10.472
-10.47
-10.474
-10.479
-10.479
-10.482
-10.482
-10.48
-10.483
-10.484
-10.484
-10.484
-10.485
-10.485
-10.48
-10.477
-10.476
-10.475
-10.473
-10.473
-10.479
-10.483
-10.486
-10.483
-10.481
-10.484
-10.491
-10.493
-10.491
-10.487
-10.485
-10.483
-10.483
-10.483
-10.482
-10.484
-10.482
-10.479
-10.481
-10.483
-10.482
-10.485
-10.487
-10.495
-10.495
-10.491
-10.491
-10.488
-10.484
-10.478
-10.472
-10.469
-10.468
-10.468
-10.467
-10.469
-10.471
-10.471
-10.472
-10.471
-10.473
-10.476
-10.479
-10.479
-10.478
-10.478
-10.48
-10.483
-10.486
-10.488
-10.489
-10.489
-10.487
-10.483
-10.479
-10.479
-10.478
-10.479
-10.487
-10.496
-10.491
-10.487
-10.486
-10.485
-10.485
-10.488
-10.489
-10.487
-10.486
-10.485
-10.486
-10.483
-10.484
-10.487
-10.485
-10.484
-10.485
-10.483
-10.482
-10.479
-10.481
-10.481
-10.478
-10.48
-10.484
-10.496
-10.5
-10.495
-10.486
-10.482
-10.477
-10.474
-10.474
-10.475
-10.476
-10.475
-10.479
-10.479
-10.482
-10.486
-10.487
-10.491
-10.494
-10.491
-10.491
-10.491
-10.49
-10.49
-10.493
-10.498
-10.503
-10.5
-10.501
-10.494
-10.49
-10.489
-10.485
-10.484
-10.483
-10.485
-10.484
-10.483
-10.483
-10.484
-10.483
-10.482
-10.482
-10.483
-10.48
-10.481
-10.483
-10.479
-10.479
-10.479
-10.475
-10.472
-10.47
-10.473
-10.474
-10.476
-10.479
-10.482
-10.484
-10.486
-10.487
-10.487
-10.488
-10.49
-10.493
-10.496
-10.498
-10.498
-10.498
-10.493
-10.495
-10.5
-10.5
-10.496
-10.491
-10.488
-10.484
-10.483
-10.485
-10.49
-10.489
-10.487
-10.486
-10.482
-10.483
-10.483
-10.485
-10.484
-10.486
-10.484
-10.482
-10.482
-10.479
-10.489
-10.498
-10.496
-10.49
-10.487
-10.484
-10.479
-10.476
-10.475
-10.475
-10.477
-10.479
-10.478
-10.485
-10.488
-10.486
-10.488
-10.492
-10.493
-10.497
-10.503
-10.503
-10.502
-10.497
-10.491
-10.489
-10.487
-10.486
-10.486
-10.485
-10.483
-10.484
-10.484
-10.483
-10.484
-10.484
-10.483
-10.483
-10.484
-10.485
-10.491
-10.493
-10.494
-10.497
-10.498
-10.499
-10.498
-10.494
-10.492
-10.488
-10.485
-10.483
-10.485
-10.484
-10.482
-10.481
-10.484
-10.483
-10.482
-10.487
-10.491
-10.493
-10.494
-10.493
-10.494
-10.497
-10.499
-10.501
-10.497
-10.496
-10.497
-10.496
-10.494
-10.492
-10.494
-10.493
-10.491
-10.495
-10.495
-10.494
-10.495
-10.494
-10.495
-10.498
-10.497
-10.505
-10.509
-10.5
-10.496
-10.492
-10.49
-10.485
-10.486
-10.483
-10.48
-10.48
-10.485
-10.484
-10.486
-10.491
-10.494
-10.496
-10.491
-10.5
-10.507
-10.501
-10.496
-10.492
-10.492
-10.499
-10.502
-10.501
-10.5
-10.499
-10.496
-10.495
-10.492
-10.488
-10.49
-10.488
-10.488
-10.491
-10.49
-10.493
-10.493
-10.491
-10.486
-10.487
-10.487
-10.491
-10.492
-10.49
-10.493
-10.494
-10.492
-10.49
-10.492
-10.492
-10.492
-10.492
-10.493
-10.493
-10.491
-10.492
-10.493
-10.493
-10.493
-10.494
-10.495
-10.496
-10.495
-10.495
-10.495
-10.493
-10.491
-10.493
-10.495
-10.5
-10.512
-10.515
-10.508
-10.506
-10.5
-10.498
-10.496
-10.491
-10.483
-10.482
-10.486
-10.487
-10.489
-10.49
-10.489
-10.49
-10.488
-10.487
-10.487
-10.485
-10.487
-10.491
-10.495
-10.497
-10.495
-10.494
-10.492
-10.5
-10.503
-10.502
-10.5
-10.5
-10.499
-10.503
-10.509
-10.51
-10.505
-10.512
-10.511
-10.503
-10.496
-10.493
-10.49
-10.487
-10.484
-10.491
-10.491
-10.491
-10.491
-10.491
-10.493
-10.494
-10.493
-10.496
-10.502
-10.507
-10.508
-10.507
-10.504
-10.5
-10.496
-10.493
-10.495
-10.496
-10.496
-10.495
-10.493
-10.495
-10.497
-10.495
-10.493
-10.496
-10.494
-10.494
-10.492
-10.491
-10.491
-10.495
-10.496
-10.496
-10.496
-10.501
-10.502
-10.501
-10.502
-10.504
-10.501
-10.5
-10.499
-10.493
-10.493
-10.494
-10.496
-10.499
-10.5
-10.499
-10.499
-10.5
-10.495
-10.494
-10.494
-10.494
-10.494
-10.494
-10.494
-10.494
-10.492
-10.493
-10.494
-10.496
-10.496
-10.498
-10.498
-10.498
-10.498
-10.496
-10.5
-10.506
-10.509
-10.509
-10.505
-10.504
-10.503
-10.5
-10.498
-10.497
-10.492
-10.492
-10.496
-10.495
-10.497
-10.5
-10.5
-10.497
-10.498
-10.5
-10.504
-10.505
-10.513
-10.527
-10.533
-10.534
-10.537
-10.536
-10.527
-10.518
-10.511
-10.502
-10.5
-10.496
-10.492
-10.488
-10.483
-10.485
-10.486
-10.491
-10.504
-10.519
-10.52
-10.515
-10.513
-10.51
-10.507
-10.506
-10.505
-10.501
-10.496
-10.492
-10.487
-10.483
-10.483
-10.488
-10.493
-10.495
-10.502
-10.506
-10.507
-10.508
-10.507
-10.503
-10.504
-10.503
-10.503
-10.504
-10.501
-10.498
-10.498
-10.5
-10.501
-10.5
-10.503
-10.502
-10.503
-10.503
-10.502
-10.499
-10.503
-10.503
-10.5
-10.499
-10.499
-10.497
-10.495
-10.496
-10.498
-10.497
-10.498
-10.501
-10.498
-10.498
-10.499
-10.499
-10.5
-10.501
-10.502
-10.503
-10.506
-10.505
-10.507
-10.509
-10.513
-10.521
-10.522
-10.52
-10.518
-10.518
-10.515
-10.511
-10.505
-10.503
-10.507
-10.508
-10.511
-10.515
-10.514
-10.509
-10.508
-10.508
-10.508
-10.51
-10.507
-10.506
-10.505
-10.503
-10.503
-10.506
-10.504
-10.505
-10.503
-10.502
-10.502
-10.503
-10.504
-10.506
-10.512
-10.52
-10.517
-10.511
-10.507
-10.508
-10.508
-10.507
-10.506
-10.508
-10.509
-10.509
-10.509
-10.51
-10.511
-10.511
-10.511
-10.511
-10.51
-10.511
-10.512
-10.509
-10.506
-10.504
-10.505
-10.506
-10.505
-10.502
-10.499
-10.495
-10.494
-10.497
-10.499
-10.501
-10.501
-10.501
-10.503
-10.503
-10.504
-10.505
-10.508
-10.507
-10.505
-10.505
-10.507
-10.509
-10.516
-10.523
-10.517
-10.508
-10.503
-10.497
-10.493
-10.491
-10.492
-10.493
-10.498
-10.504
-10.509
-10.512
-10.513
-10.512
-10.51
-10.512
-10.512
-10.512
-10.523
-10.528
-10.525
-10.523
-10.52
-10.517
-10.513
-10.512
-10.514
-10.512
-10.509
-10.508
-10.514
-10.514
-10.517
-10.515
-10.512
-10.505
-10.503
-10.504
-10.503
-10.503
-10.505
-10.508
-10.512
-10.513
-10.521
-10.527
-10.528
-10.525
-10.522
-10.521
-10.52
-10.52
-10.521
-10.516
-10.515
-10.511
-10.506
-10.497
-10.495
-10.496
-10.498
-10.5
-10.5
-10.501
-10.505
-10.507
-10.508
-10.506
-10.509
-10.518
-10.52
-10.516
-10.512
-10.506
-10.505
-10.508
-10.508
-10.511
-10.512
-10.518
-10.516
-10.513
-10.514
-10.514
-10.511
-10.509
-10.51
-10.507
-10.507
-10.51
-10.512
-10.514
-10.511
-10.509
-10.507
-10.51
-10.508
-10.508
-10.508
-10.508
-10.509
-10.506
-10.511
-10.511
-10.51
-10.512
-10.513
-10.517
-10.519
-10.518
-10.515
-10.513
-10.511
-10.509
-10.511
-10.511
-10.51
-10.509
-10.509
-10.512
-10.513
-10.513
-10.513
-10.519
-10.527
-10.53
-10.53
-10.527
-10.523
-10.521
-10.518
-10.516
-10.517
-10.512
-10.511
-10.513
-10.515
-10.519
-10.516
-10.511
-10.506
-10.507
-10.51
-10.515
-10.516
-10.518
-10.516
-10.514
-10.513
-10.511
-10.512
-10.514
-10.516
-10.518
-10.517
-10.515
-10.515
-10.517
-10.519
-10.521
-10.522
-10.521
-10.521
-10.526
-10.535
-10.532
-10.526
-10.523
-10.522
-10.527
-10.528
-10.527
-10.524
-10.52
-10.519
-10.516
-10.515
-10.508
-10.503
-10.503
-10.503
-10.504
-10.505
-10.506
-10.51
-10.509
-10.509
-10.519
-10.527
-10.521
-10.518
-10.516
-10.512
-10.512
-10.514
-10.519
-10.52
-10.517
-10.517
-10.516
-10.517
-10.519
-10.52
-10.522
-10.52
-10.52
-10.518
-10.514
-10.516
-10.516
-10.518
-10.518
-10.522
-10.518
-10.518
-10.529
-10.531
-10.519
-10.515
-10.515
-10.515
-10.52
-10.521
-10.521
-10.519
-10.517
-10.517
-10.517
-10.519
-10.518
-10.516
-10.514
-10.512
-10.511
-10.513
-10.509
-10.51
-10.51
-10.51
-10.513
-10.517
-10.518
-10.518
-10.523
-10.523
-10.522
-10.525
-10.522
-10.52
-10.52
-10.519
-10.52
-10.521
-10.522
-10.522
-10.521
-10.522
-10.522
-10.518
-10.519
-10.517
-10.515
-10.519
-10.518
-10.522
-10.524
-10.524
-10.523
-10.527
-10.526
-10.526
-10.526
-10.523
-10.524
-10.522
-10.522
-10.522
-10.522
-10.521
-10.519
-10.521
-10.521
-10.519
-10.515
-10.517
-10.519
-10.52
-10.52
-10.519
-10.525
-10.531
-10.535
-10.538
-10.539
-10.54
-10.538
-10.537
-10.534
-10.529
-10.522
-10.519
-10.517
-10.513
-10.511
-10.508
-10.512
-10.515
-10.515
-10.516
-10.519
-10.519
-10.52
-10.528
-10.526
-10.524
-10.522
-10.52
-10.529
-10.534
-10.535
-10.536
-10.543
-10.545
-10.545
-10.541
-10.53
-10.523
-10.519
-10.516
-10.515
-10.514
-10.518
-10.517
-10.519
-10.518
-10.515
-10.514
-10.511
-10.509
-10.51
-10.511
-10.513
-10.515
-10.517
-10.522
-10.523
-10.524
-10.523
-10.521
-10.522
-10.526
-10.532
-10.531
-10.529
-10.527
-10.528
-10.525
-10.524
-10.525
-10.523
-10.525
-10.526
-10.526
-10.527
-10.525
-10.528
-10.53
-10.531
-10.53
-10.531
-10.53
-10.529
-10.527
-10.525
-10.522
-10.519
-10.52
-10.523
-10.524
-10.525
-10.524
-10.523
-10.525
-10.524
-10.528
-10.531
-10.529
-10.531
-10.53
-10.528
-10.53
-10.529
-10.529
-10.532
-10.54
-10.542
-10.535
-10.524
-10.517
-10.518
-10.516
-10.518
-10.519
-10.521
-10.52
-10.52
-10.519
-10.522
-10.525
-10.526
-10.523
-10.523
-10.524
-10.526
-10.525
-10.527
-10.524
-10.522
-10.522
-10.525
-10.532
-10.536
-10.533
-10.531
-10.527
-10.523
-10.523
-10.518
-10.516
-10.519
-10.518
-10.519
-10.522
-10.525
-10.523
-10.525
-10.525
-10.526
-10.527
-10.528
-10.53
-10.54
-10.542
-10.538
-10.535
-10.53
-10.532
-10.532
-10.528
-10.529
-10.542
-10.549
-10.544
-10.537
-10.528
-10.528
-10.524
-10.521
-10.522
-10.523
-10.523
-10.522
-10.526
-10.528
-10.529
-10.534
-10.537
-10.535
-10.533
-10.53
-10.53
-10.53
-10.533
-10.529
-10.525
-10.525
-10.527
-10.527
-10.527
-10.529
-10.532
-10.532
-10.534
-10.532
-10.534
-10.534
-10.534
-10.535
-10.535
-10.54
-10.546
-10.546
-10.542
-10.543
-10.54
-10.534
-10.531
-10.525
-10.521
-10.526
-10.524
-10.52
-10.52
-10.523
-10.521
-10.524
-10.524
-10.525
-10.526
-10.525
-10.523
-10.521
-10.523
-10.525
-10.525
-10.524
-10.527
-10.529
-10.529
-10.529
-10.526
-10.525
-10.526
-10.528
-10.532
-10.532
-10.529
-10.528
-10.528
-10.526
-10.526
-10.524
-10.527
-10.528
-10.528
-10.529
-10.531
-10.532
-10.533
-10.538
-10.537
-10.54
-10.545
-10.544
-10.543
-10.54
-10.541
-10.541
-10.539
-10.537
-10.532
-10.531
-10.533
-10.533
-10.536
-10.546
-10.546
-10.535
-10.531
-10.532
-10.53
-10.532
-10.532
-10.531
-10.529
-10.531
-10.53
-10.526
-10.523
-10.526
-10.529
-10.531
-10.53
-10.538
-10.545
-10.544
-10.541
-10.537
-10.538
-10.546
-10.546
-10.54
-10.539
-10.54
-10.539
-10.538
-10.535
-10.533
-10.53
-10.527
-10.524
-10.526
-10.524
-10.528
-10.528
-10.528
-10.527
-10.53
-10.535
-10.538
-10.536
-10.537
-10.537
-10.535
-10.534
-10.532
-10.531
-10.533
-10.536
-10.536
-10.538
-10.538
-10.536
-10.537
-10.536
-10.536
-10.538
-10.541
-10.541
-10.538
-10.537
-10.532
-10.53
-10.531
-10.528
-10.532
-10.533
-10.532
-10.53
-10.529
-10.53
-10.531
-10.533
-10.534
-10.535
-10.536
-10.536
-10.533
-10.534
-10.534
-10.533
-10.535
-10.533
-10.534
-10.534
-10.534
-10.536
-10.538
-10.533
-10.533
-10.534
-10.536
-10.535
-10.534
-10.539
-10.537
-10.537
-10.532
-10.532
-10.534
-10.539
-10.542
-10.541
-10.54
-10.543
-10.544
-10.54
-10.542
-10.542
-10.543
-10.543
-10.542
-10.54
-10.538
-10.537
-10.535
-10.534
-10.533
-10.534
-10.539
-10.54
-10.539
-10.537
-10.535
-10.534
-10.538
-10.539
-10.535
-10.537
-10.543
-10.548
-10.546
-10.544
-10.54
-10.537
-10.535
-10.531
-10.532
-10.531
-10.534
-10.534
-10.536
-10.538
-10.539
-10.539
-10.543
-10.544
-10.544
-10.545
-10.543
-10.543
-10.544
-10.553
-10.563
-10.565
-10.558
-10.551
-10.546
-10.544
-10.545
-10.543
-10.541
-10.54
-10.546
-10.547
-10.545
-10.545
-10.544
-10.544
-10.542
-10.538
-10.539
-10.537
-10.536
-10.538
-10.538
-10.54
-10.54
-10.54
-10.536
-10.533
-10.534
-10.536
-10.536
-10.534
-10.533
-10.537
-10.536
-10.537
-10.536
-10.537
-10.538
-10.54
-10.541
-10.542
-10.543
-10.541
-10.538
-10.541
-10.545
-10.546
-10.542
-10.542
-10.542
-10.541
-10.542
-10.542
-10.541
-10.541
-10.543
-10.545
-10.546
-10.546
-10.541
-10.542
-10.543
-10.545
-10.543
-10.542
-10.544
-10.545
-10.545
-10.543
-10.544
-10.544
-10.54
-10.541
-10.541
-10.541
-10.547
-10.558
-10.561
-10.557
-10.551
-10.547
-10.544
-10.543
-10.54
-10.539
-10.538
-10.538
-10.54
-10.541
-10.544
-10.547
-10.548
-10.544
-10.546
-10.548
-10.547
-10.547
-10.553
-10.553
-10.55
-10.549
-10.543
-10.539
-10.539
-10.542
-10.542
-10.541
-10.547
-10.548
-10.546
-10.546
-10.55
-10.553
-10.551
-10.55
-10.546
-10.543
-10.544
-10.542
-10.544
-10.546
-10.547
-10.545
-10.544
-10.543
-10.54
-10.539
-10.543
-10.541
-10.539
-10.537
-10.541
-10.54
-10.541
-10.543
-10.544
-10.547
-10.553
-10.559
-10.56
-10.559
-10.566
-10.568
-10.564
-10.558
-10.557
-10.569
-10.565
-10.557
-10.55
-10.549
-10.551
-10.547
-10.543
-10.541
-10.539
-10.538
-10.536
-10.534
-10.534
-10.537
-10.535
-10.537
-10.537
-10.538
-10.541
-10.547
-10.552
-10.552
-10.55
-10.547
-10.544
-10.542
-10.541
-10.543
-10.544
-10.547
-10.55
-10.552
-10.55
-10.549
-10.547
-10.546
-10.546
-10.547
-10.546
-10.549
-10.547
-10.549
-10.549
-10.549
-10.546
-10.546
-10.549
-10.548
-10.548
-10.55
-10.552
-10.554
-10.553
-10.553
-10.548
-10.549
-10.551
-10.552
-10.55
-10.55
-10.548
-10.545
-10.544
-10.543
-10.546
-10.545
-10.547
-10.55
-10.549
-10.55
-10.551
-10.551
-10.555
-10.553
-10.552
-10.549
-10.55
-10.55
-10.55
-10.548
-10.548
-10.547
-10.55
-10.549
-10.55
-10.552
-10.553
-10.554
-10.56
-10.562
-10.562
-10.556
-10.551
-10.553
-10.551
-10.552
-10.549
-10.547
-10.546
-10.548
-10.543
-10.544
-10.542
-10.543
-10.543
-10.542
-10.543
-10.548
-10.55
-10.549
-10.554
-10.556
-10.556
-10.556
-10.556
-10.559
-10.562
-10.562
-10.565
-10.572
-10.574
-10.574
-10.574
-10.572
-10.566
-10.56
-10.557
-10.553
-10.553
-10.551
-10.548
-10.551
-10.558
-10.558
-10.553
-10.546
-10.539
-10.538
-10.538
-10.544
-10.552
-10.557
-10.558
-10.56
-10.561
-10.563
-10.56
-10.559
-10.557
-10.556
-10.55
-10.548
-10.551
-10.556
-10.559
-10.56
-10.56
-10.557
-10.553
-10.552
-10.549
-10.544
-10.544
-10.542
-10.543
-10.547
-10.551
-10.548
-10.549
-10.547
-10.546
-10.548
-10.549
-10.553
-10.551
-10.548
-10.553
-10.553
-10.553
-10.552
-10.557
-10.556
-10.559
-10.571
-10.575
-10.567
-10.56
-10.553
-10.55
-10.55
-10.551
-10.551
-10.55
-10.553
-10.552
-10.553
-10.555
-10.56
-10.558
-10.555
-10.556
-10.557
-10.555
-10.556
-10.561
-10.561
-10.557
-10.556
-10.554
-10.56
-10.563
-10.563
-10.561
-10.558
-10.558
-10.557
-10.557
-10.556
-10.554
-10.553
-10.551
-10.554
-10.555
-10.557
-10.558
-10.557
-10.563
-10.563
-10.565
-10.568
-10.582
-10.583
-10.576
-10.574
-10.572
-10.568
-10.568
-10.571
-10.572
-10.57
-10.567
-10.56
-10.559
-10.557
-10.556
-10.557
-10.557
-10.556
-10.553
-10.546
-10.545
-10.543
-10.541
-10.542
-10.543
-10.542
-10.542
-10.545
-10.546
-10.55
-10.551
-10.55
-10.551
-10.552
-10.554
-10.554
-10.555
-10.555
-10.552
-10.556
-10.558
-10.556
-10.554
-10.555
-10.557
-10.557
-10.559
-10.559
-10.558
-10.56
-10.558
-10.555
-10.558
-10.557
-10.556
-10.556
-10.557
-10.561
-10.56
-10.563
-10.562
-10.563
-10.564
-10.565
-10.565
-10.565
-10.565
-10.562
-10.56
-10.557
-10.551
-10.553
-10.556
-10.555
-10.556
-10.558
-10.56
-10.561
-10.561
-10.561
-10.566
-10.571
-10.57
-10.567
-10.561
-10.558
-10.557
-10.558
-10.555
-10.558
-10.557
-10.555
-10.554
-10.559
-10.565
-10.563
-10.565
-10.568
-10.568
-10.565
-10.566
-10.563
-10.561
-10.564
-10.563
-10.563
-10.565
-10.569
-10.571
-10.576
-10.58
-10.58
-10.58
-10.577
-10.576
-10.574
-10.568
-10.562
-10.562
-10.562
-10.561
-10.562
-10.565
-10.566
-10.568
-10.57
-10.568
-10.565
-10.564
-10.559
-10.557
-10.556
-10.555
-10.558
-10.56
-10.561
-10.565
-10.567
-10.565
-10.565
-10.565
-10.565
-10.565
-10.564
-10.561
-10.563
-10.574
-10.576
-10.572
-10.568
-10.563
-10.554
-10.552
-10.552
-10.553
-10.554
-10.556
-10.555
-10.559
-10.562
-10.56
-10.556
-10.555
-10.553
-10.554
-10.557
-10.561
-10.561
-10.563
-10.568
-10.575
-10.578
-10.572
-10.569
-10.57
-10.567
-10.561
-10.559
-10.562
-10.563
-10.563
-10.561
-10.563
-10.564
-10.564
-10.568
-10.571
-10.572
-10.571
-10.57
-10.569
-10.567
-10.571
-10.571
-10.569
-10.569
-10.568
-10.565
-10.563
-10.564
-10.568
-10.567
-10.571
-10.581
-10.583
-10.578
-10.58
-10.575
-10.573
-10.573
-10.571
-10.572
-10.572
-10.568
-10.564
-10.56
-10.558
-10.557
-10.56
-10.561
-10.563
-10.564
-10.564
-10.565
-10.568
-10.565
-10.565
-10.567
-10.567
-10.568
-10.57
-10.567
-10.565
-10.565
-10.562
-10.563
-10.565
-10.572
-10.578
-10.579
-10.582
-10.58
-10.578
-10.577
-10.574
-10.572
-10.568
-10.566
-10.565
-10.562
-10.562
-10.561
-10.561
-10.562
-10.564
-10.57
-10.583
-10.589
-10.588
-10.582
-10.576
-10.57
-10.566
-10.565
-10.562
-10.561
-10.56
-10.562
-10.562
-10.56
-10.561
-10.562
-10.562
-10.563
-10.564
-10.565
-10.568
-10.574
-10.577
-10.578
-10.581
-10.578
-10.576
-10.576
-10.575
-10.574
-10.572
-10.576
-10.577
-10.58
-10.577
-10.575
-10.572
-10.575
-10.575
-10.569
-10.568
-10.568
-10.566
-10.567
-10.569
-10.566
-10.566
-10.568
-10.565
-10.563
-10.565
-10.565
-10.568
-10.571
-10.574
-10.579
-10.577
-10.575
-10.573
-10.571
-10.568
-10.569
-10.57
-10.57
-10.572
-10.573
-10.573
-10.571
-10.568
-10.568
-10.568
-10.568
-10.568
-10.571
-10.573
-10.573
-10.572
-10.576
-10.578
-10.579
-10.577
-10.577
-10.577
-10.577
-10.573
-10.572
-10.573
-10.574
-10.584
-10.585
-10.582
-10.58
-10.579
-10.575
-10.573
-10.571
-10.57
-10.574
-10.577
-10.576
-10.577
-10.575
-10.573
-10.571
-10.57
-10.569
-10.57
-10.569
-10.569
-10.569
-10.57
-10.567
-10.566
-10.567
-10.57
-10.573
-10.574
-10.573
-10.575
-10.573
-10.574
-10.574
-10.576
-10.577
-10.581
-10.586
-10.581
-10.582
-10.588
-10.596
-10.592
-10.585
-10.579
-10.575
-10.572
-10.574
-10.574
-10.57
-10.566
-10.568
-10.572
-10.572
-10.575
-10.576
-10.587
-10.595
-10.588
-10.58
-10.573
-10.573
-10.573
-10.572
-10.571
-10.572
-10.575
-10.578
-10.576
-10.573
-10.573
-10.575
-10.576
-10.576
-10.575
-10.572
-10.576
-10.578
-10.582
-10.584
-10.584
-10.583
-10.58
-10.58
-10.582
-10.579
-10.574
-10.573
-10.566
-10.563
-10.566
-10.573
-10.583
-10.588
-10.586
-10.583
-10.58
-10.582
-10.583
-10.583
-10.583
-10.584
-10.582
-10.579
-10.578
-10.578
-10.577
-10.574
-10.573
-10.578
-10.577
-10.575
-10.575
-10.572
-10.574
-10.576
-10.576
-10.579
-10.578
-10.579
-10.576
-10.576
-10.576
-10.578
-10.577
-10.577
-10.58
-10.583
-10.581
-10.583
-10.583
-10.581
-10.583
-10.584
-10.585
-10.585
-10.582
-10.579
-10.579
-10.578
-10.58
-10.579
-10.58
-10.582
-10.586
-10.588
-10.584
-10.581
-10.579
-10.577
-10.577
-10.585
-10.59
-10.587
-10.584
-10.582
-10.582
-10.583
-10.582
-10.583
-10.584
-10.586
-10.583
-10.581
-10.579
-10.579
-10.579
-10.579
-10.579
-10.577
-10.575
-10.575
-10.573
-10.574
-10.577
-10.58
-10.58
-10.582
-10.585
-10.588
-10.587
-10.588
-10.586
-10.584
-10.584
-10.582
-10.581
-10.581
-10.582
-10.586
-10.585
-10.585
-10.582
-10.581
-10.584
-10.582
-10.585
-10.585
-10.585
-10.584
-10.588
-10.596
-10.6
-10.596
-10.589
-10.583
-10.585
-10.584
-10.582
-10.58
-10.582
-10.58
-10.579
-10.582
-10.583
-10.584
-10.582
-10.582
-10.581
-10.581
-10.582
-10.579
-10.58
-10.584
-10.584
-10.589
-10.592
-10.592
-10.592
-10.592
-10.591
-10.588
-10.585
-10.58
-10.585
-10.583
-10.582
-10.58
-10.582
-10.582
-10.586
-10.586
-10.582
-10.58
-10.576
-10.574
-10.573
-10.575
-10.577
-10.578
-10.583
-10.581
-10.585
-10.586
-10.586
-10.587
-10.586
-10.589
-10.589
-10.589
-10.592
-10.594
-10.595
-10.599
-10.6
-10.594
-10.591
-10.588
-10.59
-10.59
-10.587
-10.588
-10.588
-10.585
-10.586
-10.589
-10.59
-10.591
-10.59
-10.587
-10.585
-10.585
-10.584
-10.583
-10.587
-10.588
-10.588
-10.589
-10.589
-10.592
-10.593
-10.592
-10.591
-10.598
-10.603
-10.601
-10.597
-10.589
-10.583
-10.58
-10.58
-10.582
-10.582
-10.581
-10.583
-10.584
-10.585
-10.583
-10.584
-10.595
-10.599
-10.596
-10.594
-10.593
-10.592
-10.592
-10.591
-10.592
-10.596
-10.595
-10.595
-10.601
-10.603
-10.6
-10.593
-10.586
-10.585
-10.584
-10.585
-10.584
-10.582
-10.585
-10.584
-10.584
-10.583
-10.583
-10.585
-10.588
-10.59
-10.59
-10.595
-10.595
-10.592
-10.591
-10.592
-10.592
-10.59
-10.588
-10.585
-10.584
-10.583
-10.583
-10.582
-10.582
-10.584
-10.583
-10.592
-10.596
-10.596
-10.593
-10.593
-10.592
-10.596
-10.599
-10.605
-10.603
-10.601
-10.6
-10.6
-10.595
-10.594
-10.597
-10.606
-10.607
-10.601
-10.595
-10.592
-10.588
-10.588
-10.588
-10.591
-10.59
-10.594
-10.593
-10.59
-10.592
-10.59
-10.588
-10.588
-10.59
-10.589
-10.588
-10.59
-10.602
-10.608
-10.604
-10.601
-10.597
-10.597
-10.604
-10.601
-10.593
-10.591
-10.585
-10.583
-10.582
-10.59
-10.599
-10.601
-10.593
-10.587
-10.584
-10.583
-10.585
-10.586
-10.581
-10.583
-10.584
-10.582
-10.585
-10.585
-10.586
-10.586
-10.59
-10.59
-10.591
-10.592
-10.593
-10.594
-10.593
-10.595
-10.597
-10.594
-10.596
-10.596
-10.595
-10.598
-10.599
-10.597
-10.595
-10.592
-10.595
-10.598
-10.595
-10.595
-10.597
-10.602
-10.603
-10.602
-10.599
-10.597
-10.593
-10.596
-10.596
-10.599
-10.6
-10.6
-10.603
-10.606
-10.603
-10.6
-10.599
-10.597
-10.594
-10.595
-10.597
-10.593
-10.595
-10.595
-10.599
-10.599
-10.596
-10.594
-10.592
-10.591
-10.591
-10.59
-10.594
-10.593
-10.593
-10.59
-10.59
-10.589
-10.589
-10.587
-10.595
-10.605
-10.605
-10.602
-10.601
-10.6
-10.603
-10.601
-10.604
-10.607
-10.607
-10.605
-10.601
-10.598
-10.592
-10.586
-10.588
-10.589
-10.587
-10.585
-10.586
-10.6
-10.617
-10.614
-10.604
-10.595
-10.587
-10.586
-10.587
-10.59
-10.59
-10.591
-10.594
-10.594
-10.598
-10.598
-10.595
-10.596
-10.595
-10.593
-10.597
-10.596
-10.597
-10.597
-10.599
-10.595
-10.594
-10.599
-10.599
-10.6
-10.599
-10.6
-10.6
-10.601
-10.597
-10.598
-10.601
-10.6
-10.6
-10.598
-10.599
-10.598
-10.599
-10.605
-10.61
-10.61
-10.608
-10.613
-10.613
-10.613
-10.614
-10.615
-10.617
-10.614
-10.612
-10.608
-10.605
-10.606
-10.604
-10.601
-10.598
-10.595
-10.598
-10.599
-10.593
-10.588
-10.588
-10.59
-10.595
-10.595
-10.595
-10.594
-10.593
-10.593
-10.593
-10.593
-10.594
-10.593
-10.592
-10.596
-10.596
-10.597
-10.6
-10.599
-10.603
-10.601
-10.6
-10.601
-10.602
-10.6
-10.599
-10.601
-10.601
-10.601
-10.602
-10.6
-10.6
-10.599
-10.599
-10.601
-10.599
-10.597
-10.598
-10.596
-10.595
-10.595
-10.597
-10.597
-10.595
-10.597
-10.592
-10.591
-10.593
-10.594
-10.594
-10.596
-10.598
-10.604
-10.613
-10.614
-10.612
-10.615
-10.611
-10.605
-10.605
-10.607
-10.604
-10.604
-10.602
-10.598
-10.597
-10.596
-10.597
-10.6
-10.602
-10.599
-10.601
-10.601
-10.604
-10.603
-10.601
-10.604
-10.603
-10.607
-10.61
-10.613
-10.613
-10.611
-10.611
-10.617
-10.623
-10.622
-10.62
-10.624
-10.64
-10.647
-10.637
-10.625
-10.613
-10.606
-10.598
-10.594
-10.593
-10.597
-10.598
-10.6
-10.598
-10.599
-10.6
-10.596
-10.596
-10.594
-10.592
-10.591
-10.589
-10.589
-10.59
-10.592
-10.59
-10.589
-10.59
-10.594
-10.599
-10.599
-10.6
-10.598
-10.6
-10.605
-10.603
-10.602
-10.602
-10.601
-10.603
-10.607
-10.608
-10.61
-10.609
-10.606
-10.609
-10.61
-10.608
-10.604
-10.607
-10.608
-10.606
-10.604
-10.601
-10.6
-10.6
-10.603
-10.606
-10.604
-10.604
-10.607
-10.616
-10.619
-10.613
-10.612
-10.613
-10.612
-10.613
-10.611
-10.611
-10.614
-10.615
-10.618
-10.616
-10.62
-10.622
-10.617
-10.61
-10.605
-10.602
-10.603
-10.607
-10.608
-10.612
-10.614
-10.612
-10.61
-10.611
-10.619
-10.623
-10.622
-10.62
-10.614
-10.608
-10.602
-10.598
-10.6
-10.606
-10.609
-10.607
-10.604
-10.603
-10.605
-10.605
-10.606
-10.603
-10.599
-10.597
-10.599
-10.599
-10.601
-10.605
-10.605
-10.605
-10.603
-10.603
-10.603
-10.604
-10.605
-10.605
-10.605
-10.605
-10.608
-10.609
-10.608
-10.607
-10.609
-10.611
-10.61
-10.613
-10.611
-10.612
-10.614
-10.615
-10.613
-10.614
-10.614
-10.615
-10.612
-10.61
-10.61
-10.611
-10.611
-10.609
-10.606
-10.604
-10.602
-10.605
-10.608
-10.611
-10.609
-10.609
-10.608
-10.604
-10.606
-10.605
-10.603
-10.607
-10.605
-10.608
-10.612
-10.611
-10.616
-10.626
-10.631
-10.634
-10.633
-10.626
-10.615
-10.61
-10.609
-10.612
-10.611
-10.612
-10.623
-10.628
-10.627
-10.622
-10.62
-10.616
-10.612
-10.614
-10.611
-10.607
-10.605
-10.605
-10.607
-10.605
-10.603
-10.603
-10.603
-10.605
-10.607
-10.602
-10.606
-10.615
-10.616
-10.614
-10.614
-10.608
-10.606
-10.607
-10.61
-10.609
-10.609
-10.609
-10.608
-10.609
-10.606
-10.606
-10.606
-10.605
-10.604
-10.606
-10.606
-10.604
-10.608
-10.611
-10.611
-10.61
-10.612
-10.614
-10.611
-10.613
-10.611
-10.612
-10.613
-10.614
-10.615
-10.615
-10.617
-10.619
-10.621
-10.623
-10.621
-10.621
-10.621
-10.621
-10.623
-10.621
-10.614
-10.61
-10.611
-10.61
-10.609
-10.608
-10.607
-10.609
-10.61
-10.61
-10.611
-10.612
-10.613
-10.612
-10.612
-10.615
-10.614
-10.615
-10.616
-10.619
-10.617
-10.617
-10.618
-10.622
-10.618
-10.615
-10.614
-10.612
-10.612
-10.613
-10.611
-10.611
-10.612
-10.612
-10.61
-10.608
-10.611
-10.61
-10.609
-10.612
-10.613
-10.619
-10.62
-10.619
-10.615
-10.615
-10.616
-10.615
-10.615
-10.615
-10.615
-10.617
-10.62
-10.617
-10.616
-10.62
-10.624
-10.626
-10.624
-10.622
-10.623
-10.621
-10.625
-10.633
-10.63
-10.624
-10.619
-10.617
-10.613
-10.614
-10.61
-10.608
-10.608
-10.61
-10.612
-10.617
-10.626
-10.626
-10.622
-10.615
-10.614
-10.617
-10.618
-10.621
-10.621
-10.621
-10.622
-10.623
-10.625
-10.625
-10.628
-10.627
-10.622
-10.617
-10.616
-10.615
-10.614
-10.616
-10.623
-10.625
-10.623
-10.619
-10.618
-10.616
-10.617
-10.615
-10.626
-10.631
-10.624
-10.624
-10.624
-10.62
-10.619
-10.619
-10.618
-10.616
-10.615
-10.619
-10.631
-10.631
-10.624
-10.62
-10.614
-10.615
-10.617
-10.618
-10.616
-10.618
-10.62
-10.618
-10.618
-10.619
-10.616
-10.615
-10.615
-10.613
-10.612
-10.612
-10.613
-10.613
-10.616
-10.616
-10.617
-10.616
-10.618
-10.616
-10.617
-10.614
-10.612
-10.616
-10.62
-10.62
-10.619
-10.618
-10.616
-10.614
-10.617
-10.617
-10.616
-10.615
-10.612
-10.614
-10.618
-10.616
-10.616
-10.617
-10.621
-10.623
-10.632
-10.634
-10.629
-10.626
-10.622
-10.621
-10.622
-10.622
-10.621
-10.62
-10.62
-10.625
-10.628
-10.628
-10.628
-10.629
-10.623
-10.62
-10.623
-10.623
-10.62
-10.618
-10.619
-10.618
-10.618
-10.619
-10.618
-10.62
-10.622
-10.62
-10.62
-10.624
-10.628
-10.629
-10.629
-10.627
-10.627
-10.624
-10.621
-10.622
-10.621
-10.617
-10.618
-10.618
-10.617
-10.616
-10.62
-10.625
-10.633
-10.631
-10.633
-10.63
-10.624
-10.618
-10.616
-10.616
-10.619
-10.62
-10.621
-10.623
-10.626
-10.627
-10.626
-10.627
-10.627
-10.623
-10.623
-10.622
-10.62
-10.619
-10.618
-10.62
-10.618
-10.619
-10.618
-10.619
-10.62
-10.621
-10.621
-10.62
-10.618
-10.616
-10.616
-10.618
-10.619
-10.621
-10.623
-10.624
-10.627
-10.625
-10.627
-10.632
-10.632
-10.631
-10.634
-10.637
-10.637
-10.633
-10.633
-10.63
-10.625
-10.624
-10.624
-10.631
-10.627
-10.627
-10.625
-10.624
-10.623
-10.622
-10.622
-10.621
-10.621
-10.624
-10.626
-10.63
-10.633
-10.632
-10.637
-10.641
-10.65
-10.657
-10.654
-10.647
-10.642
-10.637
-10.63
-10.628
-10.623
-10.619
-10.616
-10.614
-10.617
-10.621
-10.624
-10.64
-10.649
-10.642
-10.635
-10.628
-10.624
-10.622
-10.619
-10.621
-10.621
-10.624
-10.63
-10.629
-10.628
-10.624
-10.621
-10.619
-10.619
-10.617
-10.617
-10.619
-10.619
-10.617
-10.622
-10.624
-10.623
-10.625
-10.626
-10.627
-10.628
-10.626
-10.626
-10.626
-10.626
-10.625
-10.625
-10.619
-10.619
-10.621
-10.625
-10.626
-10.624
-10.626
-10.625
-10.625
-10.628
-10.626
-10.624
-10.623
-10.625
-10.625
-10.624
-10.622
-10.621
-10.626
-10.628
-10.629
-10.631
-10.63
-10.63
-10.628
-10.63
-10.632
-10.635
-10.64
-10.644
-10.644
-10.641
-10.638
-10.636
-10.63
-10.635
-10.645
-10.649
-10.644
-10.637
-10.633
-10.633
-10.631
-10.628
-10.631
-10.633
-10.629
-10.625
-10.625
-10.627
-10.63
-10.627
-10.628
-10.627
-10.625
-10.625
-10.625
-10.627
-10.627
-10.627
-10.625
-10.624
-10.628
-10.633
-10.641
-10.644
-10.639
-10.635
-10.631
-10.628
-10.629
-10.631
-10.631
-10.63
-10.625
-10.618
-10.616
-10.619
-10.623
-10.627
-10.628
-10.63
-10.633
-10.633
-10.632
-10.63
-10.626
-10.625
-10.627
-10.625
-10.621
-10.621
-10.624
-10.624
-10.627
-10.629
-10.627
-10.627
-10.628
-10.634
-10.635
-10.636
-10.631
-10.63
-10.63
-10.629
-10.63
-10.631
-10.631
-10.632
-10.629
-10.632
-10.635
-10.637
-10.634
-10.636
-10.639
-10.642
-10.642
-10.644
-10.639
-10.635
-10.633
-10.628
-10.625
-10.628
-10.633
-10.636
-10.637
-10.637
-10.634
-10.633
-10.631
-10.632
-10.634
-10.639
-10.65
-10.654
-10.648
-10.642
-10.642
-10.642
-10.64
-10.64
-10.639
-10.634
-10.634
-10.635
-10.631
-10.629
-10.629
-10.638
-10.643
-10.645
-10.652
-10.647
-10.637
-10.633
-10.632
-10.632
-10.631
-10.633
-10.629
-10.626
-10.628
-10.626
-10.628
-10.63
-10.632
-10.633
-10.633
-10.631
-10.629
-10.627
-10.628
-10.63
-10.632
-10.633
-10.631
-10.634
-10.633
-10.633
-10.631
-10.635
-10.634
-10.634
-10.637
-10.633
-10.633
-10.634
-10.633
-10.632
-10.631
-10.633
-10.631
-10.627
-10.628
-10.628
-10.63
-10.634
-10.634
-10.635
-10.635
-10.636
-10.638
-10.64
-10.637
-10.637
-10.636
-10.633
-10.63
-10.631
-10.634
-10.639
-10.64
-10.649
-10.653
-10.653
-10.65
-10.648
-10.648
-10.644
-10.645
-10.65
-10.651
-10.649
-10.648
-10.645
-10.642
-10.641
-10.642
-10.639
-10.635
-10.636
-10.636
-10.644
-10.65
-10.646
-10.64
-10.635
-10.632
-10.624
-10.624
-10.627
-10.628
-10.632
-10.631
-10.632
-10.636
-10.635
-10.635
-10.638
-10.639
-10.636
-10.638
-10.64
-10.64
-10.638
-10.637
-10.633
-10.63
-10.629
-10.631
-10.632
-10.632
-10.632
-10.634
-10.634
-10.632
-10.631
-10.629
-10.63
-10.629
-10.631
-10.633
-10.635
-10.637
-10.638
-10.638
-10.639
-10.639
-10.638
-10.639
-10.64
-10.64
-10.637
-10.637
-10.638
-10.638
-10.636
-10.632
-10.63
-10.63
-10.631
-10.633
-10.632
-10.632
-10.629
-10.633
-10.636
-10.638
-10.638
-10.643
-10.643
-10.644
-10.644
-10.652
-10.658
-10.657
-10.656
-10.65
-10.647
-10.647
-10.641
-10.64
-10.641
-10.643
-10.646
-10.647
-10.652
-10.651
-10.651
-10.653
-10.652
-10.652
-10.647
-10.646
-10.644
-10.638
-10.638
-10.643
-10.649
-10.658
-10.669
-10.668
-10.662
-10.65
-10.635
-10.63
-10.628
-10.63
-10.629
-10.628
-10.629
-10.631
-10.637
-10.642
-10.649
-10.648
-10.647
-10.647
-10.649
-10.649
-10.651
-10.65
-10.652
-10.65
-10.644
-10.64
-10.638
-10.641
-10.642
-10.641
-10.638
-10.639
-10.635
-10.634
-10.631
-10.629
-10.628
-10.632
-10.646
-10.648
-10.642
-10.641
-10.639
-10.638
-10.637
-10.637
-10.64
-10.641
-10.643
-10.643
-10.641
-10.641
-10.641
-10.64
-10.644
-10.644
-10.644
-10.645
-10.643
-10.644
-10.644
-10.644
-10.643
-10.646
-10.648
-10.651
-10.658
-10.656
-10.648
-10.646
-10.643
-10.642
-10.643
-10.643
-10.643
-10.642
-10.639
-10.635
-10.641
-10.654
-10.658
-10.654
-10.65
-10.647
-10.644
-10.644
-10.642
-10.641
-10.642
-10.643
-10.643
-10.642
-10.644
-10.641
-10.642
-10.641
-10.641
-10.642
-10.643
-10.644
-10.643
-10.644
-10.649
-10.649
-10.647
-10.646
-10.645
-10.645
-10.648
-10.648
-10.648
-10.646
-10.646
-10.645
-10.642
-10.642
-10.645
-10.647
-10.645
-10.645
-10.643
-10.641
-10.643
-10.642
-10.645
-10.648
-10.649
-10.654
-10.653
-10.647
-10.647
-10.647
-10.643
-10.643
-10.642
-10.641
-10.643
-10.644
-10.645
-10.645
-10.645
-10.645
-10.649
-10.648
-10.651
-10.661
-10.661
-10.658
-10.658
-10.655
-10.654
-10.648
-10.65
-10.651
-10.652
-10.65
-10.645
-10.646
-10.647
-10.645
-10.646
-10.646
-10.647
-10.649
-10.647
-10.646
-10.646
-10.647
-10.643
-10.642
-10.644
-10.642
-10.64
-10.641
-10.644
-10.646
-10.646
-10.646
-10.648
-10.647
-10.65
-10.651
-10.651
-10.65
-10.648
-10.646
-10.644
-10.645
-10.644
-10.645
-10.645
-10.646
-10.646
-10.648
-10.648
-10.645
-10.647
-10.648
-10.649
-10.649
-10.648
-10.649
-10.649
-10.65
-10.653
-10.669
-10.672
-10.666
-10.658
-10.652
-10.647
-10.646
-10.643
-10.644
-10.646
-10.65
-10.651
-10.655
-10.663
-10.662
-10.663
-10.661
-10.66
-10.66
-10.656
-10.657
-10.654
-10.653
-10.648
-10.641
-10.636
-10.633
-10.636
-10.641
-10.645
-10.645
-10.646
-10.649
-10.649
-10.649
-10.649
-10.649
-10.651
-10.653
-10.649
-10.653
-10.655
-10.657
-10.657
-10.656
-10.652
-10.651
-10.65
-10.649
-10.65
-10.653
-10.652
-10.651
-10.65
-10.658
-10.664
-10.665
-10.664
-10.663
-10.661
-10.658
-10.655
-10.655
-10.655
-10.653
-10.652
-10.653
-10.648
-10.65
-10.653
-10.651
-10.651
-10.65
-10.649
-10.65
-10.653
-10.656
-10.656
-10.651
-10.65
-10.647
-10.647
-10.651
-10.651
-10.65
-10.649
-10.649
-10.651
-10.65
-10.65
-10.66
-10.664
-10.661
-10.66
-10.656
-10.655
-10.653
-10.651
-10.649
-10.647
-10.648
-10.651
-10.655
-10.663
-10.67
-10.666
-10.661
-10.655
-10.655
-10.655
-10.655
-10.657
-10.657
-10.659
-10.662
-10.663
-10.665
-10.665
-10.662
-10.663
-10.657
-10.646
-10.642
-10.644
-10.644
-10.645
-10.644
-10.645
-10.648
-10.657
-10.666
-10.663
-10.659
-10.656
-10.654
-10.651
-10.65
-10.652
-10.651
-10.649
-10.656
-10.659
-10.664
-10.664
-10.664
-10.664
-10.661
-10.658
-10.657
-10.659
-10.66
-10.658
-10.656
-10.655
-10.654
-10.653
-10.652
-10.654
-10.653
-10.651
-10.651
-10.652
-10.65
-10.65
-10.65
-10.65
-10.653
-10.655
-10.656
-10.66
-10.664
-10.661
-10.658
-10.657
-10.658
-10.661
-10.66
-10.66
-10.662
-10.66
-10.659
-10.658
-10.66
-10.659
-10.657
-10.656
-10.656
-10.658
-10.657
-10.658
-10.672
-10.677
-10.673
-10.671
-10.669
-10.662
-10.657
-10.654
-10.65
-10.648
-10.648
-10.652
-10.653
-10.652
-10.654
-10.656
-10.655
-10.656
-10.656
-10.654
-10.657
-10.657
-10.661
-10.662
-10.66
-10.662
-10.665
-10.668
-10.669
-10.67
-10.666
-10.663
-10.664
-10.661
-10.659
-10.657
-10.661
-10.661
-10.658
-10.657
-10.656
-10.655
-10.656
-10.659
-10.658
-10.657
-10.658
-10.658
-10.658
-10.654
-10.659
-10.672
-10.676
-10.672
-10.666
-10.66
-10.656
-10.654
-10.65
-10.647
-10.647
-10.647
-10.644
-10.648
-10.652
-10.655
-10.658
-10.662
-10.663
-10.664
-10.665
-10.664
-10.664
-10.664
-10.663
-10.663
-10.664
-10.664
-10.661
-10.656
-10.655
-10.658
-10.657
-10.661
-10.662
-10.667
-10.668
-10.672
-10.671
-10.674
-10.684
-10.68
-10.676
-10.67
-10.666
-10.662
-10.657
-10.658
-10.659
-10.658
-10.661
-10.664
-10.659
-10.656
-10.661
-10.664
-10.664
-10.664
-10.664
-10.665
-10.665
-10.665
-10.665
-10.667
-10.667
-10.668
-10.666
-10.661
-10.657
-10.656
-10.657
-10.659
-10.657
-10.655
-10.66
-10.66
-10.66
-10.659
-10.657
-10.659
-10.658
-10.661
-10.662
-10.66
-10.661
-10.662
-10.664
-10.669
-10.671
-10.671
-10.672
-10.673
-10.672
-10.67
-10.665
-10.663
-10.659
-10.66
-10.662
-10.663
-10.662
-10.664
-10.667
-10.667
-10.668
-10.668
-10.672
-10.672
-10.671
-10.67
-10.665
-10.661
-10.665
-10.664
-10.662
-10.657
-10.658
-10.665
-10.674
-10.678
-10.675
-10.67
-10.665
-10.662
-10.661
-10.664
-10.664
-10.66
-10.656
-10.659
-10.671
-10.682
-10.681
-10.675
-10.672
-10.669
-10.666
-10.664
-10.667
-10.669
-10.671
-10.669
-10.669
-10.666
-10.665
-10.667
-10.67
-10.672
-10.671
-10.67
-10.671
-10.67
-10.669
-10.671
-10.67
-10.667
-10.67
-10.671
-10.668
-10.666
-10.665
-10.664
-10.662
-10.661
-10.658
-10.656
-10.659
-10.658
-10.66
-10.661
-10.664
-10.664
-10.663
-10.662
-10.662
-10.661
-10.661
-10.66
-10.661
-10.662
-10.662
-10.664
-10.667
-10.669
-10.67
-10.67
-10.668
-10.668
-10.668
-10.666
-10.666
-10.667
-10.671
-10.669
-10.669
-10.67
-10.668
-10.668
-10.668
-10.666
-10.668
-10.666
-10.666
-10.668
-10.671
-10.671
-10.666
-10.666
-10.667
-10.665
-10.665
-10.67
-10.68
-10.688
-10.689
-10.686
-10.681
-10.682
-10.679
-10.678
-10.678
-10.675
-10.671
-10.664
-10.662
-10.662
-10.664
-10.666
-10.668
-10.666
-10.665
-10.668
-10.668
-10.666
-10.669
-10.669
-10.671
-10.67
-10.669
-10.671
-10.667
-10.666
-10.668
-10.666
-10.663
-10.665
-10.67
-10.672
-10.677
-10.682
-10.683
-10.679
-10.676
-10.676
-10.678
-10.677
-10.678
-10.675
-10.673
-10.677
-10.676
-10.671
-10.67
-10.673
-10.672
-10.673
-10.673
-10.67
-10.67
-10.674
-10.686
-10.688
-10.683
-10.679
-10.675
-10.67
-10.67
-10.672
-10.672
-10.672
-10.669
-10.667
-10.662
-10.66
-10.659
-10.66
-10.666
-10.666
-10.665
-10.668
-10.673
-10.682
-10.682
-10.679
-10.679
-10.677
-10.676
-10.673
-10.673
-10.67
-10.669
-10.667
-10.669
-10.669
-10.668
-10.67
-10.674
-10.675
-10.68
-10.681
-10.682
-10.69
-10.693
-10.685
-10.68
-10.674
-10.67
-10.665
-10.664
-10.66
-10.659
-10.662
-10.662
-10.669
-10.671
-10.671
-10.673
-10.675
-10.677
-10.676
-10.678
-10.681
-10.678
-10.676
-10.676
-10.673
-10.672
-10.671
-10.672
-10.675
-10.677
-10.683
-10.688
-10.687
-10.685
-10.683
-10.68
-10.68
-10.679
-10.678
-10.673
-10.672
-10.671
-10.669
-10.672
-10.673
-10.674
-10.672
-10.669
-10.671
-10.667
-10.666
-10.67
-10.668
-10.669
-10.672
-10.674
-10.675
-10.676
-10.676
-10.677
-10.677
-10.677
-10.676
-10.677
-10.681
-10.68
-10.677
-10.675
-10.675
-10.679
-10.678
-10.676
-10.674
-10.674
-10.674
-10.674
-10.676
-10.678
-10.679
-10.685
-10.683
-10.683
-10.68
-10.68
-10.681
-10.68
-10.68
-10.679
-10.679
-10.681
-10.681
-10.681
-10.681
-10.683
-10.682
-10.68
-10.681
-10.681
-10.679
-10.682
-10.688
-10.688
-10.691
-10.7
-10.704
-10.699
-10.695
-10.69
-10.688
-10.691
-10.689
-10.685
-10.677
-10.672
-10.672
-10.682
-10.684
-10.679
-10.675
-10.674
-10.676
-10.678
-10.677
-10.679
-10.677
-10.679
-10.676
-10.673
-10.67
-10.67
-10.671
-10.673
-10.679
-10.68
-10.682
-10.684
-10.682
-10.682
-10.679
-10.681
-10.681
-10.683
-10.682
-10.677
-10.674
-10.676
-10.676
-10.681
-10.684
-10.684
-10.686
-10.684
-10.684
-10.684
-10.682
-10.682
-10.683
-10.685
-10.686
-10.684
-10.68
-10.68
-10.679
-10.681
-10.681
-10.682
-10.683
-10.686
-10.685
-10.685
-10.684
-10.679
-10.677
-10.68
-10.681
-10.679
-10.689
-10.691
-10.685
-10.679
-10.675
-10.672
-10.673
-10.675
-10.676
-10.676
-10.678
-10.681
-10.679
-10.679
-10.68
-10.68
-10.681
-10.683
-10.684
-10.684
-10.682
-10.683
-10.682
-10.685
-10.683
-10.686
-10.688
-10.688
-10.687
-10.686
-10.685
-10.685
-10.68
-10.68
-10.682
-10.684
-10.684
-10.683
-10.686
-10.684
-10.686
-10.688
-10.693
-10.702
-10.703
-10.702
-10.701
-10.7
-10.701
-10.698
-10.69
-10.682
-10.681
-10.682
-10.682
-10.681
-10.682
-10.678
-10.675
-10.677
-10.677
-10.678
-10.682
-10.68
-10.681
-10.681
-10.682
-10.683
-10.686
-10.681
-10.681
-10.683
-10.683
-10.683
-10.686
-10.686
-10.685
-10.685
-10.685
-10.682
-10.684
-10.685
-10.684
-10.684
-10.685
-10.684
-10.685
-10.687
-10.687
-10.685
-10.687
-10.686
-10.686
-10.684
-10.686
-10.686
-10.687
-10.693
-10.692
-10.692
-10.687
-10.688
-10.694
-10.695
-10.694
-10.692
-10.689
-10.685
-10.684
-10.684
-10.685
-10.684
-10.684
-10.683
-10.683
-10.682
-10.683
-10.683
-10.686
-10.686
-10.683
-10.683
-10.684
-10.684
-10.682
-10.68
-10.681
-10.681
-10.684
-10.684
-10.687
-10.691
-10.691
-10.688
-10.689
-10.695
-10.696
-10.699
-10.697
-10.696
-10.698
-10.697
-10.696
-10.695
-10.695
-10.695
-10.695
-10.693
-10.692
-10.689
-10.688
-10.688
-10.688
-10.688
-10.687
-10.689
-10.694
-10.695
-10.695
-10.697
-10.695
-10.697
-10.695
-10.691
-10.689
-10.686
-10.686
-10.687
-10.688
-10.689
-10.691
-10.694
-10.696
-10.697
-10.696
-10.7
-10.697
-10.694
-10.691
-10.689
-10.687
-10.685
-10.686
-10.688
-10.687
-10.684
-10.688
-10.687
-10.689
-10.691
-10.69
-10.689
-10.692
-10.692
-10.693
-10.692
-10.692
-10.693
-10.69
-10.688
-10.687
-10.687
-10.688
-10.69
-10.693
-10.703
-10.705
-10.701
-10.694
-10.689
-10.688
-10.688
-10.688
-10.686
-10.687
-10.687
-10.687
-10.69
-10.69
-10.69
-10.697
-10.706
-10.702
-10.7
-10.699
-10.702
-10.7
-10.697
-10.693
-10.693
-10.691
-10.692
-10.692
-10.691
-10.689
-10.686
-10.686
-10.689
-10.69
-10.69
-10.692
-10.69
-10.693
-10.694
-10.694
-10.696
-10.696
-10.697
-10.698
-10.697
-10.693
-10.691
-10.692
-10.695
-10.699
-10.701
-10.702
-10.699
-10.698
-10.698
-10.697
-10.695
-10.696
-10.695
-10.695
-10.689
-10.688
-10.687
-10.69
-10.689
-10.688
-10.691
-10.691
-10.692
-10.694
-10.693
-10.69
-10.69
-10.688
-10.688
-10.686
-10.687
-10.69
-10.69
-10.688
-10.69
-10.69
-10.691
-10.694
-10.699
-10.701
-10.702
-10.701
-10.701
-10.701
-10.701
-10.7
-10.699
-10.696
-10.694
-10.691
-10.695
-10.699
-10.704
-10.706
-10.701
-10.699
-10.704
-10.704
-10.696
-10.691
-10.689
-10.69
-10.69
-10.689
-10.692
-10.691
-10.689
-10.689
-10.69
-10.691
-10.693
-10.691
-10.689
-10.692
-10.694
-10.691
-10.693
-10.696
-10.697
-10.695
-10.695
-10.698
-10.7
-10.699
-10.696
-10.698
-10.7
-10.702
-10.704
-10.705
-10.704
-10.708
-10.709
-10.706
-10.703
-10.7
-10.697
-10.691
-10.692
-10.698
-10.7
-10.702
-10.704
-10.706
-10.709
-10.712
-10.711
-10.707
-10.704
-10.702
-10.699
-10.694
-10.691
-10.69
-10.687
-10.69
-10.691
-10.687
-10.692
-10.694
-10.696
-10.696
-10.697
-10.699
-10.699
-10.698
-10.698
-10.7
-10.702
-10.704
-10.705
-10.705
-10.705
-10.697
-10.692
-10.695
-10.694
-10.692
-10.692
-10.692
-10.693
-10.693
-10.699
-10.71
-10.712
-10.71
-10.705
-10.702
-10.7
-10.698
-10.697
-10.702
-10.709
-10.71
-10.708
-10.701
-10.699
-10.698
-10.694
-10.692
-10.695
-10.698
-10.699
-10.699
-10.7
-10.699
-10.698
-10.699
-10.702
-10.7
-10.701
-10.7
-10.699
-10.701
-10.701
-10.699
-10.701
-10.703
-10.704
-10.701
-10.7
-10.698
-10.696
-10.694
-10.699
-10.698
-10.699
-10.705
-10.708
-10.707
-10.703
-10.702
-10.7
-10.701
-10.705
-10.703
-10.701
-10.699
-10.698
-10.699
-10.7
-10.701
-10.699
-10.696
-10.694
-10.696
-10.701
-10.703
-10.702
-10.701
-10.699
-10.698
-10.7
-10.703
-10.701
-10.702
-10.704
-10.704
-10.705
-10.703
-10.701
-10.698
-10.699
-10.701
-10.701
-10.702
-10.702
-10.703
-10.705
-10.708
-10.707
-10.707
-10.711
-10.713
-10.71
-10.71
-10.715
-10.722
-10.72
-10.713
-10.708
-10.702
-10.698
-10.697
-10.693
-10.696
-10.696
-10.698
-10.701
-10.702
-10.7
-10.701
-10.703
-10.704
-10.701
-10.699
-10.701
-10.703
-10.706
-10.705
-10.706
-10.711
-10.709
-10.712
-10.717
-10.719
-10.716
-10.715
-10.716
-10.714
-10.716
-10.717
-10.71
-10.703
-10.703
-10.703
-10.7
-10.698
-10.695
-10.692
-10.695
-10.697
-10.696
-10.696
-10.694
-10.694
-10.696
-10.696
-10.701
-10.703
-10.705
-10.706
-10.706
-10.705
-10.704
-10.707
-10.71
-10.708
-10.707
-10.705
-10.704
-10.703
-10.701
-10.704
-10.702
-10.703
-10.705
-10.709
-10.707
-10.709
-10.709
-10.705
-10.706
-10.706
-10.706
-10.708
-10.712
-10.713
-10.715
-10.724
-10.726
-10.723
-10.717
-10.709
-10.706
-10.705
-10.705
-10.703
-10.703
-10.705
-10.706
-10.707
-10.707
-10.705
-10.703
-10.702
-10.702
-10.701
-10.7
-10.696
-10.696
-10.7
-10.699
-10.701
-10.703
-10.704
-10.705
-10.705
-10.705
-10.703
-10.704
-10.704
-10.706
-10.71
-10.709
-10.711
-10.71
-10.709
-10.708
-10.711
-10.713
-10.715
-10.711
-10.711
-10.712
-10.713
-10.715
-10.718
-10.716
-10.717
-10.72
-10.72
-10.715
-10.715
-10.715
-10.714
-10.716
-10.715
-10.712
-10.714
-10.71
-10.706
-10.706
-10.705
-10.701
-10.7
-10.704
-10.705
-10.707
-10.704
-10.703
-10.707
-10.706
-10.705
-10.708
-10.709
-10.709
-10.709
-10.705
-10.705
-10.709
-10.712
-10.714
-10.708
-10.709
-10.709
-10.707
-10.708
-10.709
-10.705
-10.703
-10.705
-10.706
-10.705
-10.707
-10.707
-10.708
-10.706
-10.708
-10.708
-10.711
-10.71
-10.716
-10.723
-10.727
-10.724
-10.723
-10.727
-10.731
-10.727
-10.718
-10.715
-10.709
-10.706
-10.702
-10.705
-10.708
-10.706
-10.708
-10.711
-10.712
-10.711
-10.712
-10.714
-10.709
-10.707
-10.706
-10.702
-10.7
-10.703
-10.706
-10.708
-10.709
-10.712
-10.713
-10.713
-10.716
-10.723
-10.724
-10.724
-10.725
-10.727
-10.723
-10.721
-10.721
-10.717
-10.716
-10.717
-10.717
-10.716
-10.715
-10.713
-10.716
-10.717
-10.717
-10.715
-10.715
-10.714
-10.716
-10.713
-10.713
-10.711
-10.707
-10.708
-10.707
-10.707
-10.711
-10.714
-10.717
-10.713
-10.71
-10.714
-10.715
-10.717
-10.718
-10.718
-10.718
-10.717
-10.718
-10.717
-10.714
-10.711
-10.713
-10.713
-10.709
-10.707
-10.708
-10.71
-10.714
-10.713
-10.709
-10.71
-10.71
-10.711
-10.713
-10.714
-10.716
-10.716
-10.721
-10.731
-10.732
-10.729
-10.729
-10.729
-10.727
-10.724
-10.719
-10.714
-10.71
-10.707
-10.705
-10.703
-10.7
-10.699
-10.701
-10.703
-10.706
-10.708
-10.708
-10.71
-10.712
-10.714
-10.711
-10.713
-10.714
-10.712
-10.714
-10.715
-10.725
-10.729
-10.729
-10.724
-10.72
-10.719
-10.715
-10.712
-10.71
-10.71
-10.708
-10.708
-10.71
-10.711
-10.712
-10.713
-10.714
-10.717
-10.717
-10.716
-10.716
-10.712
-10.711
-10.708
-10.708
-10.707
-10.709
-10.711
-10.71
-10.712
-10.716
-10.718
-10.718
-10.721
-10.719
-10.722
-10.725
-10.725
-10.726
-10.726
-10.727
-10.728
-10.727
-10.725
-10.725
-10.729
-10.725
-10.722
-10.722
-10.722
-10.722
-10.719
-10.717
-10.714
-10.711
-10.705
-10.706
-10.71
-10.712
-10.715
-10.716
-10.719
-10.718
-10.717
-10.716
-10.718
-10.722
-10.724
-10.725
-10.731
-10.738
-10.745
-10.745
-10.741
-10.733
-10.725
-10.721
-10.715
-10.715
-10.711
-10.711
-10.71
-10.709
-10.711
-10.712
-10.709
-10.706
-10.706
-10.708
-10.711
-10.711
-10.715
-10.716
-10.719
-10.72
-10.719
-10.719
-10.719
-10.719
-10.718
-10.719
-10.721
-10.724
-10.723
-10.725
-10.723
-10.721
-10.719
-10.719
-10.715
-10.719
-10.719
-10.719
-10.721
-10.721
-10.721
-10.723
-10.724
-10.722
-10.721
-10.725
-10.731
-10.733
-10.73
-10.728
-10.726
-10.722
-10.718
-10.723
-10.717
-10.716
-10.715
-10.718
-10.72
-10.719
-10.715
-10.718
-10.726
-10.73
-10.725
-10.717
-10.715
-10.716
-10.718
-10.72
-10.717
-10.72
-10.721
-10.719
-10.722
-10.729
-10.728
-10.722
-10.721
-10.723
-10.731
-10.741
-10.745
-10.741
-10.738
-10.732
-10.728
-10.724
-10.723
-10.725
-10.728
-10.728
-10.728
-10.729
-10.726
-10.721
-10.719
-10.717
-10.713
-10.712
-10.711
-10.712
-10.712
-10.712
-10.712
-10.714
-10.714
-10.713
-10.716
-10.72
-10.719
-10.726
-10.729
-10.73
-10.728
-10.728
-10.728
-10.725
-10.728
-10.732
-10.729
-10.727
-10.727
-10.723
-10.724
-10.723
-10.719
-10.719
-10.72
-10.719
-10.719
-10.723
-10.729
-10.731
-10.727
-10.721
-10.718
-10.72
-10.72
-10.723
-10.724
-10.724
-10.721
-10.721
-10.724
-10.725
-10.727
-10.731
-10.733
-10.734
-10.73
-10.727
-10.724
-10.718
-10.718
-10.717
-10.718
-10.718
-10.72
-10.721
-10.716
-10.718
-10.724
-10.736
-10.739
-10.737
-10.734
-10.729
-10.725
-10.723
-10.719
-10.72
-10.722
-10.724
-10.723
-10.723
-10.724
-10.726
-10.734
-10.739
-10.739
-10.738
-10.738
-10.738
-10.738
-10.737
-10.736
-10.732
-10.73
-10.729
-10.729
-10.728
-10.727
-10.727
-10.726
-10.725
-10.724
-10.729
-10.728
-10.728
-10.73
-10.726
-10.725
-10.723
-10.724
-10.722
-10.72
-10.72
-10.721
-10.724
-10.726
-10.728
-10.729
-10.728
-10.73
-10.73
-10.729
-10.73
-10.732
-10.733
-10.732
-10.727
-10.725
-10.725
-10.73
-10.732
-10.731
-10.729
-10.729
-10.727
-10.729
-10.73
-10.728
-10.727
-10.728
-10.726
-10.723
-10.722
-10.723
-10.723
-10.722
-10.723
-10.722
-10.72
-10.724
-10.731
-10.729
-10.729
-10.728
-10.725
-10.734
-10.742
-10.738
-10.735
-10.732
-10.728
-10.725
-10.72
-10.718
-10.717
-10.719
-10.719
-10.722
-10.722
-10.729
-10.735
-10.737
-10.735
-10.731
-10.731
-10.731
-10.73
-10.73
-10.73
-10.729
-10.73
-10.73
-10.731
-10.73
-10.73
-10.729
-10.729
-10.729
-10.731
-10.728
-10.729
-10.729
-10.728
-10.727
-10.728
-10.731
-10.735
-10.74
-10.741
-10.74
-10.742
-10.744
-10.746
-10.753
-10.756
-10.759
-10.758
-10.75
-10.743
-10.736
-10.732
-10.728
-10.727
-10.725
-10.723
-10.723
-10.723
-10.722
-10.724
-10.725
-10.724
-10.723
-10.724
-10.727
-10.729
-10.731
-10.727
-10.722
-10.727
-10.726
-10.724
-10.726
-10.729
-10.728
-10.73
-10.729
-10.733
-10.734
-10.733
-10.734
-10.733
-10.732
-10.736
-10.747
-10.756
-10.75
-10.743
-10.736
-10.729
-10.726
-10.724
-10.726
-10.726
-10.729
-10.728
-10.731
-10.733
-10.734
-10.731
-10.732
-10.729
-10.727
-10.726
-10.727
-10.727
-10.726
-10.729
-10.727
-10.731
-10.735
-10.735
-10.743
-10.743
-10.74
-10.74
-10.737
-10.738
-10.74
-10.742
-10.741
-10.737
-10.735
-10.735
-10.734
-10.734
-10.738
-10.738
-10.736
-10.732
-10.731
-10.732
-10.728
-10.73
-10.73
-10.734
-10.736
-10.738
-10.733
-10.73
-10.73
-10.73
-10.731
-10.732
-10.735
-10.74
-10.739
-10.738
-10.738
-10.736
-10.735
-10.737
-10.744
-10.741
-10.738
-10.738
-10.734
-10.731
-10.734
-10.736
-10.74
-10.739
-10.74
-10.739
-10.745
-10.755
-10.754
-10.743
-10.735
-10.725
-10.723
-10.724
-10.722
-10.722
-10.72
-10.725
-10.727
-10.73
-10.73
-10.729
-10.73
-10.735
-10.737
-10.736
-10.738
-10.738
-10.739
-10.737
-10.739
-10.74
-10.734
-10.732
-10.73
-10.734
-10.736
-10.737
-10.736
-10.739
-10.742
-10.739
-10.736
-10.736
-10.735
-10.735
-10.734
-10.735
-10.74
-10.745
-10.744
-10.744
-10.744
-10.746
-10.743
-10.742
-10.743
-10.74
-10.737
-10.738
-10.743
-10.741
-10.737
-10.734
-10.733
-10.736
-10.737
-10.742
-10.746
-10.744
-10.742
-10.74
-10.741
-10.738
-10.735
-10.729
-10.73
-10.73
-10.73
-10.732
-10.73
-10.727
-10.727
-10.73
-10.733
-10.735
-10.739
-10.741
-10.74
-10.738
-10.741
-10.74
-10.739
-10.741
-10.741
-10.739
-10.738
-10.739
-10.738
-10.739
-10.738
-10.744
-10.747
-10.745
-10.74
-10.737
-10.735
-10.734
-10.734
-10.734
-10.738
-10.746
-10.746
-10.75
-10.758
-10.756
-10.75
-10.744
-10.738
-10.735
-10.732
-10.732
-10.731
-10.728
-10.724
-10.725
-10.73
-10.732
-10.735
-10.734
-10.735
-10.738
-10.744
-10.747
-10.75
-10.754
-10.755
-10.757
-10.759
-10.762
-10.762
-10.76
-10.755
-10.751
-10.742
-10.734
-10.728
-10.726
-10.723
-10.726
-10.728
-10.73
-10.731
-10.733
-10.74
-10.741
-10.741
-10.74
-10.741
-10.74
-10.738
-10.741
-10.742
-10.743
-10.745
-10.744
-10.739
-10.74
-10.739
-10.741
-10.744
-10.743
-10.742
-10.741
-10.742
-10.741
-10.745
-10.749
-10.748
-10.747
-10.742
-10.742
-10.743
-10.742
-10.742
-10.743
-10.743
-10.745
-10.753
-10.753
-10.75
-10.743
-10.739
-10.736
-10.735
-10.735
-10.734
-10.731
-10.731
-10.731
-10.737
-10.741
-10.744
-10.742
-10.74
-10.741
-10.746
-10.751
-10.75
-10.746
-10.745
-10.744
-10.746
-10.748
-10.747
-10.747
-10.747
-10.747
-10.748
-10.75
-10.748
-10.745
-10.742
-10.74
-10.741
-10.741
-10.738
-10.74
-10.741
-10.744
-10.743
-10.742
-10.745
-10.744
-10.747
-10.748
-10.748
-10.751
-10.752
-10.753
-10.748
-10.749
-10.751
-10.75
-10.749
-10.749
-10.747
-10.745
-10.738
-10.736
-10.733
-10.73
-10.73
-10.732
-10.733
-10.734
-10.735
-10.736
-10.74
-10.742
-10.745
-10.747
-10.743
-10.742
-10.746
-10.744
-10.746
-10.746
-10.741
-10.741
-10.747
-10.757
-10.757
-10.752
-10.748
-10.746
-10.746
-10.747
-10.748
-10.749
-10.751
-10.751
-10.749
-10.747
-10.748
-10.75
-10.753
-10.755
-10.762
-10.766
-10.76
-10.752
-10.744
-10.74
-10.742
-10.742
-10.741
-10.741
-10.737
-10.736
-10.74
-10.742
-10.742
-10.745
-10.745
-10.745
-10.746
-10.748
-10.746
-10.743
-10.744
-10.744
-10.749
-10.757
-10.757
-10.755
-10.755
-10.756
-10.756
-10.755
-10.757
-10.753
-10.751
-10.748
-10.744
-10.74
-10.74
-10.741
-10.744
-10.749
-10.755
-10.756
-10.758
-10.754
-10.753
-10.753
-10.75
-10.748
-10.752
-10.752
-10.751
-10.747
-10.744
-10.741
-10.74
-10.74
-10.739
-10.739
-10.739
-10.738
-10.738
-10.742
-10.743
-10.742
-10.743
-10.745
-10.744
-10.744
-10.747
-10.746
-10.749
-10.753
-10.753
-10.752
-10.747
-10.748
-10.746
-10.744
-10.748
-10.748
-10.747
-10.749
-10.748
-10.748
-10.745
-10.746
-10.746
-10.749
-10.749
-10.749
-10.751
-10.754
-10.753
-10.753
-10.755
-10.755
-10.761
-10.768
-10.769
-10.769
-10.771
-10.762
-10.755
-10.751
-10.747
-10.743
-10.742
-10.741
-10.74
-10.746
-10.748
-10.75
-10.751
-10.749
-10.748
-10.748
-10.746
-10.746
-10.749
-10.748
-10.749
-10.75
-10.746
-10.744
-10.743
-10.743
-10.745
-10.745
-10.746
-10.752
-10.759
-10.76
-10.757
-10.76
-10.76
-10.758
-10.754
-10.751
-10.751
-10.751
-10.752
-10.749
-10.749
-10.747
-10.747
-10.749
-10.748
-10.745
-10.745
-10.743
-10.743
-10.746
-10.744
-10.745
-10.745
-10.746
-10.747
-10.748
-10.751
-10.754
-10.755
-10.756
-10.761
-10.764
-10.763
-10.762
-10.763
-10.76
-10.76
-10.761
-10.759
-10.757
-10.755
-10.753
-10.752
-10.749
-10.751
-10.751
-10.749
-10.748
-10.744
-10.741
-10.74
-10.746
-10.749
-10.75
-10.752
-10.753
-10.755
-10.754
-10.758
-10.759
-10.76
-10.763
-10.764
-10.761
-10.758
-10.758
-10.767
-10.768
-10.767
-10.763
-10.759
-10.758
-10.757
-10.757
-10.758
-10.754
-10.752
-10.754
-10.754
-10.747
-10.744
-10.749
-10.749
-10.749
-10.75
-10.75
-10.751
-10.752
-10.752
-10.752
-10.754
-10.754
-10.754
-10.758
-10.762
-10.762
-10.759
-10.758
-10.759
-10.762
-10.762
-10.762
-10.76
-10.759
-10.76
-10.756
-10.753
-10.751
-10.749
-10.751
-10.749
-10.749
-10.749
-10.748
-10.748
-10.75
-10.753
-10.76
-10.761
-10.766
-10.778
-10.784
-10.78
-10.774
-10.766
-10.76
-10.756
-10.757
-10.757
-10.75
-10.748
-10.749
-10.75
-10.752
-10.751
-10.75
-10.75
-10.75
-10.755
-10.759
-10.755
-10.752
-10.749
-10.75
-10.751
-10.752
-10.754
-10.756
-10.755
-10.755
-10.754
-10.756
-10.76
-10.76
-10.762
-10.764
-10.764
-10.763
-10.761
-10.759
-10.759
-10.758
-10.76
-10.761
-10.759
-10.76
-10.768
-10.77
-10.766
-10.764
-10.761
-10.761
-10.761
-10.762
-10.761
-10.761
-10.759
-10.759
-10.756
-10.752
-10.749
-10.746
-10.748
-10.757
-10.764
-10.763
-10.763
-10.761
-10.764
-10.766
-10.766
-10.763
-10.761
-10.76
-10.759
-10.758
-10.755
-10.754
-10.758
-10.76
-10.761
-10.763
-10.763
-10.765
-10.763
-10.759
-10.758
-10.758
-10.759
-10.76
-10.758
-10.758
-10.757
-10.756
-10.758
-10.761
-10.759
-10.759
-10.762
-10.763
-10.762
-10.763
-10.763
-10.763
-10.765
-10.766
-10.765
-10.766
-10.767
-10.773
-10.782
-10.778
-10.773
-10.769
-10.766
-10.766
-10.765
-10.763
-10.766
-10.764
-10.761
-10.759
-10.758
-10.752
-10.749
-10.744
-10.747
-10.75
-10.753
-10.758
-10.765
-10.772
-10.771
-10.769
-10.765
-10.762
-10.758
-10.76
-10.763
-10.764
-10.768
-10.773
-10.772
-10.772
-10.772
-10.773
-10.775
-10.777
-10.772
-10.766
-10.763
-10.762
-10.759
-10.757
-10.762
-10.762
-10.764
-10.771
-10.771
-10.765
-10.76
-10.76
-10.763
-10.761
-10.758
-10.759
-10.758
-10.759
-10.763
-10.763
-10.765
-10.766
-10.769
-10.768
-10.771
-10.772
-10.776
-10.778
-10.777
-10.776
-10.769
-10.77
-10.774
-10.775
-10.768
-10.763
-10.759
-10.754
-10.746
-10.745
-10.748
-10.751
-10.754
-10.759
-10.759
-10.761
-10.76
-10.766
-10.781
-10.794
-10.793
-10.783
-10.772
-10.765
-10.759
-10.755
-10.752
-10.752
-10.752
-10.753
-10.755
-10.755
-10.758
-10.757
-10.756
-10.759
-10.763
-10.762
-10.759
-10.755
-10.75
-10.746
-10.747
-10.751
-10.756
-10.758
-10.759
-10.757
-10.756
-10.755
-10.755
-10.764
-10.773
-10.783
-10.786
-10.786
-10.781
-10.777
-10.781
-10.778
-10.776
-10.772
-10.77
-10.764
-10.754
-10.746
-10.73
-10.717
-10.711
-10.71
-10.712
-10.723
-10.73
-10.752
-10.804
-10.833
-10.842
-10.863
-10.876
-10.864
-10.845
-10.849
-10.867
-10.854
-10.825
-10.787
-10.749
-10.722
-10.712
-10.713
-10.735
-10.804
-10.816
-10.788
-10.765
-10.75
-10.744
-10.743
-10.739
-10.733
-10.736
-10.74
-10.747
-10.751
-10.746
-10.74
-10.74
-10.745
-10.751
-10.754
-10.759
-10.768
-10.788
-10.837
-10.864
-10.84
-10.805
-10.773
-10.752
-10.748
-10.741
-10.727
-10.723
-10.725
-10.745
-10.757
-10.759
-10.767
-10.779
-10.792
-10.805
-10.815
-10.82
-10.82
-10.831
-10.841
-10.839
-10.84
-10.884
-10.912
-10.9
-10.877
-10.866
-10.863
-10.88
-10.952
-10.971
-10.913
-10.837
-10.789
-10.77
-10.761
-10.757
-10.75
-10.735
-10.745
-10.743
-10.767
-10.786
-10.777
-10.766
-10.774
-10.791
-10.807
-10.804
-10.802
-10.821
-10.846
-10.868
-10.91
-10.896
-10.857
-10.859
-10.862
-10.838
-10.818
-10.803
-10.817
-10.844
-10.845
-10.835
-10.825
-10.81
-10.806
-10.801
-10.789
-10.787
-10.837
-10.926
-10.914
-10.838
-10.783
-10.747
-10.731
-10.725
-10.723
-10.733
-10.745
-10.756
-10.781
-10.822
-10.859
-10.929
-10.985
-10.964
-10.895
-10.836
-10.813
-10.798
-10.774
-10.755
-10.768
-10.788
-10.79
-10.788
-10.792
-10.799
-10.792
-10.775
-10.755
-10.744
-10.738
-10.734
-10.733
-10.733
-10.748
-10.812
-10.855
-10.837
-10.805
-10.78
-10.764
-10.765
-10.773
-10.784
-10.802
-10.784
-10.798
-10.858
-10.881
-10.936
-10.955
-10.883
-10.8
-10.76
-10.743
-10.734
-10.732
-10.722
-10.718
-10.719
-10.721
-10.711
-10.703
-10.709
-10.72
-10.74
-10.793
-10.857
-10.833
-10.788
-10.795
-10.797
-10.79
-10.769
-10.746
-10.739
-10.739
-10.736
-10.737
-10.734
-10.739
-10.747
-10.746
-10.741
-10.748
-10.775
-10.783
-10.773
-10.821
-10.86
-10.85
-10.826
-10.808
-10.795
-10.787
-10.772
-10.763
-10.763
-10.761
-10.759
-10.757
-10.761
-10.768
-10.772
-10.779
-10.79
-10.824
-10.851
-10.854
-10.862
-10.846
-10.815
-10.796
-10.796
-10.797
-10.799
-10.797
-10.803
-10.804
-10.772
-10.74
-10.731
-10.747
-10.86
-10.92
-10.845
-10.768
-10.756
-10.756
-10.753
-10.738
-10.738
-10.742
-10.75
-10.762
-10.76
-10.785
-10.843
-10.808
-10.741
-10.724
-10.738
-10.741
-10.729
-10.716
-10.726
-10.743
-10.745
-10.732
-10.73
-10.751
-10.786
-10.841
-10.919
-10.913
-10.855
-10.8
-10.772
-10.78
-10.797
-10.772
-10.741
-10.723
-10.711
-10.71
-10.742
-10.746
-10.734
-10.713
-10.714
-10.735
-10.735
-10.744
-10.75
-10.74
-10.732
-10.729
-10.734
-10.757
-10.793
-10.806
-10.804
-10.786
-10.778
-10.845
-10.873
-10.801
-10.741
-10.747
-10.778
-10.755
-10.724
-10.714
-10.706
-10.69
-10.675
-10.674
-10.705
-10.728
-10.777
-10.932
-10.977
-10.87
-10.796
-10.752
-10.757
-10.807
-10.787
-10.742
-10.727
-10.755
-10.785
-10.745
-10.702
-10.73
-10.733
-10.697
-10.665
-10.643
-10.647
-10.67
-10.704
-10.745
-10.786
-10.785
-10.769
-10.746
-10.729
-10.72
-10.706
-10.698
-10.701
-10.701
-10.698
-10.719
-10.793
-10.843
-10.844
-10.813
-10.777
-10.801
-10.878
-10.876
-10.814
-10.758
-10.722
-10.715
-10.714
-10.711
-10.712
-10.744
-10.828
-10.88
-10.885
-10.797
-10.713
-10.688
-10.677
-10.67
-10.664
-10.66
-10.66
-10.643
-10.626
-10.626
-10.638
-10.664
-10.691
-10.705
-10.709
-10.709
-10.756
-10.837
-10.925
-10.918
-10.852
-10.892
-10.919
-10.841
-10.787
-10.741
-10.729
-10.732
-10.734
-10.714
-10.701
-10.698
-10.69
-10.68
-10.685
-10.692
-10.699
-10.716
-10.745
-10.773
-10.836
-10.962
-10.983
-10.938
-10.881
-10.839
-10.779
-10.715
-10.656
-10.624
-10.62
-10.62
-10.617
-10.626
-10.659
-10.769
-10.894
-10.945
-10.925
-10.86
-10.81
-10.785
-10.766
-10.781
-10.811
-10.77
-10.714
-10.695
-10.702
-10.659
-10.623
-10.62
-10.631
-10.647
-10.675
-10.75
-10.822
-10.805
-10.763
-10.731
-10.718
-10.709
-10.703
-10.726
-10.749
-10.734
-10.714
-10.701
-10.73
-10.734
-10.708
-10.737
-10.75
-10.753
-10.768
-10.758
-10.746
-10.742
-10.75
-10.791
-10.823
-10.872
-10.892
-10.877
-10.836
-10.801
-10.788
-10.774
-10.768
-10.772
-10.8
-10.904
-10.909
-10.824
-10.761
-10.73
-10.792
-10.804
-10.741
-10.752
-10.843
-10.814
-10.701
-10.625
-10.616
-10.642
-10.701
-10.749
-10.793
-10.849
-10.872
-10.845
-10.819
-10.784
-10.761
-10.746
-10.736
-10.71
-10.673
-10.645
-10.641
-10.667
-10.699
-10.697
-10.714
-10.756
-10.748
-10.739
-10.731
-10.723
-10.728
-10.738
-10.758
-10.784
-10.788
-10.771
-10.745
-10.695
-10.677
-10.684
-10.718
-10.832
-10.887
-10.814
-10.738
-10.739
-10.805
-10.806
-10.814
-10.828
-10.809
-10.783
-10.713
-10.647
-10.628
-10.629
-10.639
-10.659
-10.722
-10.767
-10.744
-10.733
-10.737
-10.727
-10.737
-10.758
-10.747
-10.711
-10.683
-10.667
-10.684
-10.752
-10.823
-10.834
-10.861
-10.904
-10.949
-10.986
-10.959
-10.899
-10.849
-10.786
-10.718
-10.691
-10.746
-10.842
-10.808
-10.714
-10.645
-10.62
-10.639
-10.675
-10.707
-10.744
-10.781
-10.823
-10.893
-10.91
-10.831
-10.748
-10.7
-10.68
-10.657
-10.634
-10.627
-10.624
-10.641
-10.701
-10.738
-10.754
-10.767
-10.759
-10.754
-10.759
-10.775
-10.775
-10.762
-10.765
-10.868
-11.028
-11.03
-10.905
-10.806
-10.746
-10.709
-10.675
-10.668
-10.742
-10.784
-10.745
-10.717
-10.725
-10.738
-10.745
-10.763
-10.806
-10.864
-10.867
-10.851
-10.892
-10.894
-10.806
-10.728
-10.672
-10.645
-10.631
-10.637
-10.699
-10.799
-10.814
-10.784
-10.756
-10.734
-10.73
-10.749
-10.744
-10.729
-10.738
-10.728
-10.704
-10.712
-10.73
-10.742
-10.734
-10.728
-10.758
-10.813
-10.832
-10.798
-10.739
-10.695
-10.667
-10.662
-10.688
-10.704
-10.724
-10.827
-10.855
-10.796
-10.742
-10.717
-10.708
-10.718
-10.754
-10.773
-10.81
-10.799
-10.784
-10.776
-10.821
-10.855
-10.842
-10.819
-10.847
-10.902
-10.891
-10.824
-10.766
-10.728
-10.71
-10.71
-10.706
-10.73
-10.775
-10.768
-10.753
-10.796
-10.888
-10.994
-10.983
-10.901
-10.813
-10.736
-10.688
-10.664
-10.666
-10.683
-10.699
-10.736
-10.797
-10.766
-10.724
-10.714
-10.728
-10.752
-10.756
-10.753
-10.756
-10.759
-10.813
-10.91
-10.922
-10.885
-10.833
-10.787
-10.743
-10.72
-10.707
-10.671
-10.631
-10.612
-10.675
-10.794
-10.856
-10.853
-10.842
-10.784
-10.74
-10.779
-10.875
-10.977
-11.062
-11.1
-11.029
-10.932
-10.853
-10.769
-10.699
-10.672
-10.656
-10.642
-10.633
-10.633
-10.646
-10.68
-10.702
-10.708
-10.71
-10.735
-10.752
-10.751
-10.742
-10.744
-10.767
-10.761
-10.745
-10.736
-10.738
-10.775
-10.806
-10.796
-10.787
-10.751
-10.702
-10.672
-10.679
-10.701
-10.709
-10.709
-10.734
-10.753
-10.786
-10.83
-10.851
-10.862
-10.854
-10.83
-10.842
-10.931
-10.968
-10.866
-10.734
-10.653
-10.638
-10.686
-10.741
-10.772
-10.873
-10.899
-10.847
-10.807
-10.783
-10.763
-10.732
-10.709
-10.707
-10.694
-10.668
-10.661
-10.69
-10.722
-10.745
-10.811
-10.912
-10.951
-10.974
-11.007
-10.967
-10.9
-10.836
-10.802
-10.755
-10.707
-10.703
-10.718
-10.677
-10.65
-10.691
-10.745
-10.756
-10.747
-10.747
-10.77
-10.773
-10.814
-10.83
-10.787
-10.756
-10.748
-10.771
-10.771
-10.746
-10.793
-10.876
-10.873
-10.81
-10.753
-10.725
-10.706
-10.701
-10.701
-10.746
-10.887
-11.026
-11.088
-10.999
-10.862
-10.768
-10.727
-10.718
-10.72
-10.734
-10.738
-10.716
-10.706
-10.719
-10.718
-10.723
-10.791
-10.848
-10.79
-10.722
-10.71
-10.697
-10.695
-10.699
-10.723
-10.779
-10.815
-10.84
-10.861
-10.848
-10.797
-10.772
-10.817
-10.892
-10.978
-10.973
-10.904
-10.844
-10.814
-10.829
-10.843
-10.826
-10.788
-10.764
-10.723
-10.728
-10.728
-10.686
-10.656
-10.66
-10.788
-10.933
-10.877
-10.76
-10.678
-10.647
-10.654
-10.716
-10.79
-10.862
-10.861
-10.808
-10.781
-10.752
-10.754
-10.785
-10.799
-10.772
-10.752
-10.733
-10.736
-10.751
-10.758
-10.791
-10.851
-10.932
-10.894
-10.843
-10.834
-10.846
-10.86
-10.821
-10.764
-10.723
-10.709
-10.723
-10.72
-10.752
-10.841
-10.872
-10.807
-10.778
-10.853
-10.949
-10.96
-10.936
-10.873
-10.802
-10.763
-10.725
-10.712
-10.705
-10.688
-10.67
-10.654
-10.642
-10.648
-10.676
-10.704
-10.702
-10.728
-10.759
-10.808
-10.856
-10.831
-10.797
-10.789
-10.785
-10.768
-10.755
-10.756
-10.757
-10.781
-10.819
-10.858
-10.943
-10.939
-10.879
-10.902
-10.955
-11.01
-11.006
-10.935
-10.832
-10.745
-10.722
-10.731
-10.78
-10.851
-10.887
-10.847
-10.755
-10.674
-10.631
-10.611
-10.609
-10.621
-10.631
-10.66
-10.693
-10.703
-10.735
-10.834
-10.916
-10.928
-10.91
-10.877
-10.852
-10.849
-10.876
-10.886
-10.858
-10.84
-10.781
-10.761
-10.787
-10.769
-10.771
-10.838
-10.872
-10.83
-10.777
-10.753
-10.734
-10.759
-10.788
-10.791
-10.833
-10.919
-10.903
-10.843
-10.815
-10.821
-10.833
-10.822
-10.771
-10.722
-10.746
-10.786
-10.784
-10.764
-10.779
-10.865
-10.948
-10.913
-10.827
-10.773
-10.736
-10.715
-10.71
-10.71
-10.765
-10.863
-10.894
-10.844
-10.77
-10.721
-10.729
-10.743
-10.719
-10.7
-10.7
-10.7
-10.733
-10.83
-10.853
-10.813
-10.787
-10.848
-10.914
-10.89
-10.848
-10.807
-10.79
-10.771
-10.773
-10.793
-10.769
-10.738
-10.731
-10.725
-10.733
-10.748
-10.768
-10.818
-10.882
-10.887
-10.834
-10.799
-10.799
-10.808
-10.894
-11.013
-10.992
-10.922
-10.833
-10.745
-10.694
-10.668
-10.663
-10.7
-10.713
-10.708
-10.754
-10.817
-10.863
-10.936
-10.956
-10.917
-10.868
-10.797
-10.756
-10.736
-10.71
-10.684
-10.712
-10.805
-10.887
-10.912
-10.913
-10.887
-10.865
-10.827
-10.776
-10.748
-10.739
-10.728
-10.722
-10.744
-10.776
-10.787
-10.833
-10.915
-10.949
-10.876
-10.799
-10.761
-10.752
-10.757
-10.725
-10.716
-10.718
-10.698
-10.685
-10.685
-10.736
-10.77
-10.775
-10.761
-10.789
-10.833
-10.873
-10.874
-10.874
-10.868
-10.852
-10.867
-10.889
-10.872
-10.847
-10.886
-10.891
-10.825
-10.818
-10.787
-10.743
-10.726
-10.741
-10.772
-10.813
-10.841
-10.857
-10.838
-10.789
-10.757
-10.739
-10.711
-10.689
-10.697
-10.73
-10.742
-10.741
-10.74
-10.74
-10.748
-10.768
-10.794
-10.849
-10.846
-10.815
-10.788
-10.778
-10.81
-10.842
-10.853
-10.823
-10.834
-10.927
-10.997
-10.96
-10.854
-10.76
-10.722
-10.712
-10.738
-10.76
-10.789
-10.806
-10.779
-10.763
-10.821
-10.906
-10.871
-10.83
-10.819
-10.807
-10.827
-10.934
-11.046
-11.026
-10.916
-10.84
-10.781
-10.732
-10.721
-10.729
-10.707
-10.706
-10.699
-10.744
-10.739
-10.692
-10.665
-10.67
-10.711
-10.768
-10.838
-10.894
-10.933
-10.937
-10.868
-10.818
-10.843
-10.883
-10.865
-10.819
-10.764
-10.723
-10.73
-10.793
-10.812
-10.801
-10.768
-10.727
-10.7
-10.703
-10.727
-10.748
-10.76
-10.789
-10.874
-10.924
-10.878
-10.806
-10.769
-10.752
-10.741
-10.741
-10.744
-10.737
-10.723
-10.719
-10.751
-10.816
-10.828
-10.834
-10.9
-10.946
-10.958
-10.956
-10.904
-10.835
-10.773
-10.817
-10.845
-10.81
-10.799
-10.798
-10.822
-10.843
-10.823
-10.81
-10.805
-10.811
-10.802
-10.806
-10.852
-10.898
-10.896
-10.818
-10.731
-10.69
-10.69
-10.725
-10.843
-10.953
-10.964
-10.917
-10.883
-10.907
-10.912
-10.871
-10.845
-10.786
-10.728
-10.681
-10.645
-10.638
-10.649
-10.657
-10.666
-10.673
-10.657
-10.659
-10.677
-10.702
-10.751
-10.825
-10.877
-10.907
-10.913
-10.897
-10.866
-10.853
-10.944
-11.078
-11.022
-10.912
-10.815
-10.757
-10.739
-10.751
-10.735
-10.724
-10.709
-10.712
-10.751
-10.761
-10.77
-10.802
-10.813
-10.803
-10.81
-10.885
-10.939
-10.982
-10.998
-10.939
-10.885
-10.848
-10.83
-10.839
-10.838
-10.813
-10.882
-10.928
-10.896
-10.82
-10.747
-10.704
-10.676
-10.683
-10.697
-10.689
-10.691
-10.699
-10.728
-10.745
-10.74
-10.756
-10.834
-10.899
-10.949
-10.982
-10.931
-10.887
-10.825
-10.814
-10.808
-10.783
-10.763
-10.733
-10.814
-10.917
-10.9
-10.817
-10.758
-10.736
-10.752
-10.794
-10.838
-10.831
-10.787
-10.752
-10.728
-10.729
-10.754
-10.796
-10.843
-10.831
-10.852
-10.865
-10.833
-10.803
-10.796
-10.794
-10.789
-10.787
-10.813
-10.861
-10.842
-10.813
-10.832
-10.901
-10.927
-10.847
-10.742
-10.694
-10.709
-10.729
-10.813
-10.918
-10.891
-10.828
-10.765
-10.733
-10.745
-10.786
-10.821
-10.859
-10.866
-10.865
-10.83
-10.877
-10.914
-10.901
-10.868
-10.868
-10.91
-10.901
-10.843
-10.797
-10.769
-10.741
-10.751
-10.774
-10.807
-10.883
-10.863
-10.79
-10.75
-10.744
-10.746
-10.816
-10.892
-10.836
-10.762
-10.722
-10.767
-10.777
-10.781
-10.815
-10.851
-10.859
-10.831
-10.79
-10.767
-10.785
-10.867
-10.909
-10.953
-10.947
-10.892
-10.877
-10.887
-10.855
-10.791
-10.749
-10.733
-10.717
-10.697
-10.734
-10.872
-11.046
-11.028
-10.92
-10.838
-10.806
-10.787
-10.773
-10.777
-10.765
-10.747
-10.767
-10.843
-10.932
-10.916
-10.839
-10.793
-10.785
-10.83
-10.927
-10.959
-10.896
-10.788
-10.716
-10.692
-10.72
-10.852
-11.07
-11.09
-11.08
-11.085
-11.013
-10.888
-10.801
-10.745
-10.696
-10.67
-10.637
-10.615
-10.615
-10.643
-10.698
-10.754
-10.772
-10.785
-10.831
-10.875
-10.878
-10.85
-10.876
-10.974
-11.006
-10.955
-10.881
-10.824
-10.833
-10.864
-10.882
-10.824
-10.746
-10.675
-10.632
-10.639
-10.663
-10.677
-10.694
-10.693
-10.713
-10.731
-10.741
-10.767
-10.787
-10.826
-10.923
-11
-10.991
-10.944
-10.924
-10.886
-10.873
-10.884
-10.988
-11.015
-10.923
-10.806
-10.743
-10.729
-10.725
-10.719
-10.713
-10.741
-10.87
-10.918
-10.857
-10.824
-10.847
-10.909
-10.978
-10.994
-11.084
-11.137
-11.05
-10.897
-10.756
-10.688
-10.656
-10.628
-10.64
-10.663
-10.661
-10.66
-10.663
-10.692
-10.731
-10.781
-10.817
-10.818
-10.814
-10.813
-10.83
-10.885
-10.97
-11.102
-11.067
-10.913
-10.815
-10.785
-10.788
-10.772
-10.816
-10.923
-10.917
-10.917
-10.888
-10.981
-11.054
-10.966
-10.926
-10.873
-10.807
-10.745
-10.696
-10.689
-10.676
-10.663
-10.657
-10.647
-10.645
-10.646
-10.669
-10.711
-10.739
-10.781
-10.837
-10.864
-10.867
-10.862
-10.915
-10.958
-10.993
-11.042
-11.012
-11
-11.11
-11.219
-11.11
-10.862
-10.696
-10.61
-10.563
-10.539
-10.572
-10.645
-10.683
-10.772
-10.871
-10.897
-10.878
-10.848
-10.814
-10.777
-10.775
-10.788
-10.777
-10.782
-10.797
-10.866
-11.002
-11.007
-10.925
-10.861
-10.828
-10.803
-10.79
-10.806
-10.849
-10.887
-10.901
-10.86
-10.86
-10.967
-11.065
-11.087
-10.942
-10.808
-10.714
-10.676
-10.672
-10.678
-10.683
-10.685
-10.721
-10.762
-10.831
-10.945
-11.079
-11.082
-10.967
-10.866
-10.782
-10.726
-10.719
-10.732
-10.743
-10.721
-10.69
-10.663
-10.65
-10.686
-10.769
-10.88
-11.006
-11.046
-10.987
-10.937
-10.89
-10.828
-10.767
-10.724
-10.699
-10.717
-10.757
-10.774
-10.806
-10.835
-10.914
-11.082
-11.181
-11.102
-10.989
-10.87
-10.78
-10.768
-10.755
-10.736
-10.708
-10.689
-10.7
-10.743
-10.78
-10.78
-10.788
-10.855
-10.892
-10.936
-11.009
-11.009
-10.931
-10.855
-10.839
-10.868
-10.89
-10.919
-10.95
-10.972
-10.888
-10.788
-10.74
-10.705
-10.681
-10.72
-10.771
-10.901
-10.994
-10.941
-10.834
-10.769
-10.877
-11.027
-11.045
-10.95
-10.839
-10.8
-10.808
-10.766
-10.75
-10.725
-10.674
-10.677
-10.736
-10.893
-10.951
-10.899
-10.842
-10.846
-10.877
-10.841
-10.804
-10.759
-10.739
-10.706
-10.679
-10.688
-10.692
-10.746
-10.824
-10.837
-10.81
-10.782
-10.778
-10.782
-10.786
-10.797
-10.82
-10.845
-10.887
-10.91
-10.899
-10.852
-10.81
-10.808
-10.887
-10.942
-10.938
-10.932
-10.891
-10.858
-10.843
-10.798
-10.764
-10.728
-10.696
-10.713
-10.775
-10.836
-10.847
-10.839
-10.829
-10.828
-10.846
-10.942
-11.057
-11.05
-11.053
-11.009
-10.93
-10.89
-10.918
-10.911
-10.826
-10.744
-10.73
-10.749
-10.748
-10.734
-10.732
-10.753
-10.783
-10.865
-10.966
-11.115
-11.274
-11.27
-11.023
-10.846
-10.752
-10.698
-10.652
-10.632
-10.662
-10.671
-10.673
-10.666
-10.701
-10.736
-10.746
-10.781
-10.816
-10.82
-10.804
-10.795
-10.847
-10.928
-10.929
-10.86
-10.799
-10.771
-10.78
-10.793
-10.784
-10.788
-10.787
-10.783
-10.788
-10.783
-10.774
-10.768
-10.801
-10.87
-10.89
-10.871
-10.828
-10.787
-10.783
-10.87
-11.041
-11.23
-11.208
-11.054
-10.943
-10.889
-10.838
-10.822
-10.818
-10.76
-10.698
-10.662
-10.642
-10.68
-10.798
-10.869
-10.909
-10.952
-10.898
-10.832
-10.82
-10.903
-10.996
-11.003
-10.97
-10.86
-10.773
-10.716
-10.686
-10.662
-10.656
-10.674
-10.714
-10.754
-10.882
-11.038
-11.152
-11.232
-11.152
-11.052
-10.94
-10.809
-10.763
-10.774
-10.738
-10.685
-10.709
-10.759
-10.733
-10.712
-10.748
-10.822
-10.846
-10.841
-10.84
-10.833
-10.829
-10.831
-10.835
-10.892
-10.946
-10.96
-10.897
-10.781
-10.716
-10.711
-10.714
-10.724
-10.794
-10.905
-10.903
-10.897
-10.906
-10.92
-10.909
-10.868
-10.817
-10.797
-10.808
-10.815
-10.789
-10.792
-10.789
-10.788
-10.832
-10.927
-11.022
-10.999
-10.901
-10.848
-10.82
-10.771
-10.729
-10.687
-10.677
-10.684
-10.708
-10.786
-10.932
-11.029
-11.073
-11.007
-10.945
-10.923
-10.957
-11.045
-11.148
-11.142
-11.018
-10.876
-10.75
-10.663
-10.626
-10.619
-10.643
-10.653
-10.678
-10.695
-10.698
-10.717
-10.752
-10.834
-10.888
-10.937
-11.032
-11.083
-10.991
-10.872
-10.812
-10.804
-10.78
-10.749
-10.718
-10.708
-10.705
-10.718
-10.762
-10.793
-10.848
-10.922
-10.928
-10.904
-10.856
-10.834
-10.844
-10.879
-10.881
-10.876
-10.817
-10.751
-10.735
-10.738
-10.75
-10.765
-10.798
-10.822
-10.861
-10.907
-10.943
-10.923
-10.872
-10.873
-10.88
-10.888
-10.88
-10.896
-10.96
-11.045
-11.047
-10.998
-10.951
-10.919
-10.826
-10.753
-10.734
-10.725
-10.716
-10.725
-10.725
-10.727
-10.739
-10.797
-10.809
-10.809
-10.786
-10.787
-10.803
-10.805
-10.838
-10.913
-11.001
-11.191
-11.447
-11.48
-11.213
-10.955
-10.789
-10.718
-10.734
-10.773
-10.743
-10.691
-10.662
-10.681
-10.722
-10.76
-10.792
-10.839
-10.981
-11.139
-11.04
-10.874
-10.775
-10.749
-10.728
-10.7
-10.679
-10.677
-10.725
-10.739
-10.731
-10.77
-10.859
-10.88
-10.901
-10.903
-10.942
-10.982
-10.985
-10.917
-10.829
-10.77
-10.734
-10.726
-10.732
-10.751
-10.777
-10.783
-10.755
-10.741
-10.746
-10.76
-10.785
-10.85
-10.882
-10.894
-10.896
-10.884
-10.871
-10.861
-10.916
-10.941
-10.932
-10.936
-10.89
-10.846
-10.848
-10.945
-10.981
-10.913
-10.825
-10.78
-10.845
-10.884
-10.984
-11.022
-10.954
-10.832
-10.749
-10.748
-10.729
-10.713
-10.735
-10.738
-10.708
-10.695
-10.712
-10.743
-10.773
-10.849
-11.002
-11.105
-11.045
-10.965
-10.925
-10.934
-10.898
-10.871
-10.909
-10.843
-10.764
-10.733
-10.732
-10.742
-10.752
-10.763
-10.793
-10.899
-10.969
-10.962
-10.945
-10.911
-10.944
-10.966
-10.878
-10.801
-10.752
-10.726
-10.713
-10.758
-10.796
-10.847
-10.824
-10.784
-10.752
-10.747
-10.786
-10.833
-10.876
-10.949
-10.974
-10.943
-10.992
-10.998
-10.954
-10.883
-10.826
-10.802
-10.793
-10.769
-10.77
-10.829
-10.937
-10.981
-10.886
-10.795
-10.809
-10.848
-10.903
-10.917
-10.839
-10.808
-10.812
-10.834
-10.831
-10.781
-10.736
-10.718
-10.75
-10.819
-10.808
-10.773
-10.749
-10.773
-10.845
-10.869
-10.933
-10.899
-10.858
-10.834
-10.839
-10.882
-10.928
-10.988
-11
-11.049
-11.048
-10.949
-10.86
-10.842
-10.883
-10.852
-10.79
-10.74
-10.702
-10.694
-10.753
-10.807
-10.849
-10.88
-10.924
-11.016
-11.028
-10.989
-10.95
-10.898
-10.871
-10.86
-10.838
-10.789
-10.738
-10.714
-10.72
-10.773
-10.803
-10.77
-10.738
-10.788
-10.862
-10.89
-10.886
-10.846
-10.807
-10.804
-10.79
-10.788
-10.799
-10.788
-10.79
-10.795
-10.798
-10.872
-10.879
-10.881
-10.863
-10.83
-10.811
-10.839
-10.944
-11.082
-11.077
-11.016
-10.908
-10.839
-10.789
-10.75
-10.742
-10.752
-10.751
-10.736
-10.719
-10.72
-10.758
-10.798
-10.836
-10.948
-11.081
-11.116
-11.022
-10.946
-11.009
-11.022
-10.98
-10.919
-10.864
-10.78
-10.753
-10.813
-10.837
-10.847
-10.815
-10.778
-10.77
-10.758
-10.776
-10.811
-10.816
-10.789
-10.77
-10.755
-10.778
-10.833
-10.885
-10.9
-10.85
-10.809
-10.81
-10.825
-10.831
-10.825
-10.874
-10.981
-10.963
-10.948
-10.912
-10.861
-10.78
-10.742
-10.832
-10.934
-10.914
-10.879
-10.847
-10.806
-10.778
-10.789
-10.803
-10.793
-10.774
-10.756
-10.754
-10.766
-10.793
-10.868
-11.017
-11.123
-11.104
-11.004
-10.846
-10.752
-10.734
-10.757
-10.774
-10.855
-10.932
-10.938
-10.931
-10.935
-10.9
-10.863
-10.84
-10.851
-10.892
-10.877
-10.803
-10.808
-10.879
-10.957
-10.972
-10.942
-10.877
-10.793
-10.747
-10.74
-10.736
-10.732
-10.738
-10.757
-10.774
-10.811
-10.872
-10.951
-10.946
-10.952
-10.888
-10.836
-10.81
-10.795
-10.792
-10.79
-10.788
-10.798
-10.854
-10.878
-10.9
-10.931
-11.004
-11.073
-11.099
-11.098
-11.065
-11.045
-11.006
-10.93
-10.824
-10.722
-10.681
-10.664
-10.667
-10.698
-10.69
-10.687
-10.686
-10.69
-10.723
-10.787
-10.874
-10.921
-10.922
-10.927
-10.919
-10.905
-10.904
-10.862
-10.818
-10.794
-10.784
-10.774
-10.788
-10.796
-10.817
-10.952
-11.051
-11.171
-11.171
-11.077
-10.914
-10.784
-10.725
-10.69
-10.691
-10.746
-10.794
-10.854
-10.892
-10.923
-10.976
-11.096
-11.206
-11.101
-10.915
-10.781
-10.696
-10.662
-10.663
-10.657
-10.656
-10.666
-10.695
-10.789
-10.865
-10.854
-10.851
-10.862
-10.813
-10.764
-10.788
-10.813
-10.832
-10.911
-11.012
-10.998
-10.964
-10.945
-10.941
-10.868
-10.787
-10.756
-10.756
-10.788
-10.851
-10.895
-10.911
-10.872
-10.838
-10.848
-10.904
-10.904
-10.876
-10.859
-10.865
-10.839
-10.848
-10.925
-10.977
-10.962
-10.88
-10.87
-10.887
-10.876
-10.883
-10.879
-10.83
-10.822
-10.849
-10.93
-10.938
-10.856
-10.785
-10.756
-10.786
-10.825
-10.845
-10.841
-10.803
-10.777
-10.77
-10.786
-10.808
-10.85
-10.863
-10.88
-10.93
-10.916
-10.864
-10.83
-10.825
-10.851
-10.875
-10.856
-10.802
-10.77
-10.784
-10.821
-10.84
-10.954
-11.084
-11.018
-10.902
-10.859
-10.863
-10.86
-10.897
-10.949
-10.9
-10.873
-10.887
-10.932
-10.896
-10.885
-10.836
-10.729
-10.673
-10.696
-10.755
-10.859
-10.999
-11.013
-10.965
-10.866
-10.822
-10.813
-10.779
-10.778
-10.856
-10.877
-10.822
-10.778
-10.755
-10.77
-10.806
-10.873
-10.935
-10.952
-10.939
-10.934
-10.922
-10.927
-10.945
-10.944
-10.916
-10.887
-10.822
-10.743
-10.726
-10.739
-10.806
-10.92
-10.875
-10.777
-10.759
-10.813
-10.874
-10.898
-10.906
-10.949
-10.982
-10.999
-10.908
-10.807
-10.782
-10.848
-10.846
-10.877
-10.847
-10.798
-10.782
-10.758
-10.754
-10.788
-10.836
-10.837
-10.835
-10.863
-10.877
-10.863
-10.853
-10.847
-10.829
-10.799
-10.813
-10.845
-10.894
-10.924
-10.873
-10.841
-10.845
-10.856
-10.868
-10.912
-10.932
-10.881
-10.859
-10.84
-10.813
-10.793
-10.774
-10.756
-10.756
-10.77
-10.805
-10.945
-11.004
-11.074
-11.059
-10.992
-10.886
-10.819
-10.796
-10.811
-10.777
-10.743
-10.73
-10.74
-10.822
-10.962
-11.115
-11.257
-11.195
-11.017
-10.876
-10.789
-10.795
-10.83
-10.838
-10.812
-10.77
-10.763
-10.744
-10.718
-10.71
-10.718
-10.718
-10.728
-10.741
-10.77
-10.811
-10.86
-10.929
-10.946
-10.959
-10.945
-10.935
-10.885
-10.823
-10.776
-10.741
-10.744
-10.789
-10.854
-10.869
-10.923
-10.976
-10.927
-10.884
-10.881
-10.944
-11.01
-10.965
-10.89
-10.786
-10.709
-10.764
-10.931
-11.046
-10.973
-10.863
-10.765
-10.721
-10.734
-10.812
-10.915
-11.059
-11.124
-10.983
-10.909
-10.879
-10.861
-10.85
-10.808
-10.78
-10.775
-10.756
-10.761
-10.831
-10.858
-10.807
-10.774
-10.765
-10.778
-10.844
-10.852
-10.859
-10.858
-10.895
-10.942
-10.992
-10.977
-10.888
-10.821
-10.84
-10.846
-10.821
-10.802
-10.806
-10.856
-10.954
-11.045
-11.029
-10.95
-10.868
-10.783
-10.738
-10.734
-10.718
-10.72
-10.763
-10.776
-10.769
-10.761
-10.759
-10.778
-10.823
-10.909
-10.897
-10.81
-10.775
-10.843
-10.972
-11.147
-11.142
-10.989
-10.874
-10.799
-10.788
-10.774
-10.785
-10.904
-10.962
-10.947
-10.855
-10.785
-10.742
-10.716
-10.724
-10.737
-10.725
-10.739
-10.839
-11.013
-11.105
-11.119
-11.141
-11.048
-10.951
-10.882
-10.802
-10.742
-10.756
-10.862
-10.893
-10.842
-10.774
-10.721
-10.758
-10.844
-10.946
-11.061
-11.036
-10.949
-10.894
-10.883
-10.825
-10.774
-10.727
-10.708
-10.71
-10.73
-10.736
-10.761
-10.798
-10.795
-10.783
-10.782
-10.863
-11.033
-11.098
-11.087
-11.01
-10.88
-10.828
-10.785
-10.784
-10.775
-10.744
-10.712
-10.695
-10.73
-10.771
-10.858
-10.963
-11.019
-10.991
-10.926
-10.858
-10.837
-10.869
-10.907
-10.944
-10.851
-10.761
-10.735
-10.74
-10.714
-10.702
-10.71
-10.767
-10.875
-11.002
-11.136
-11.216
-11.16
-11.004
-10.854
-10.81
-10.839
-10.811
-10.762
-10.751
-10.765
-10.762
-10.762
-10.766
-10.799
-10.856
-10.919
-10.923
-10.866
-10.857
-10.952
-11.004
-10.943
-10.886
-10.844
-10.794
-10.776
-10.84
-10.861
-10.908
-11.106
-11.142
-11.043
-10.883
-10.763
-10.701
-10.667
-10.666
-10.683
-10.697
-10.668
-10.647
-10.678
-10.738
-10.802
-10.825
-10.81
-10.82
-10.85
-10.884
-10.928
-10.917
-10.884
-10.908
-10.888
-10.885
-10.928
-11.001
-11.015
-10.954
-10.892
-10.912
-11.045
-11.174
-11.153
-10.964
-10.77
-10.668
-10.643
-10.652
-10.683
-10.744
-10.797
-10.787
-10.743
-10.734
-10.754
-10.774
-10.783
-10.791
-10.8
-10.813
-10.82
-10.806
-10.808
-10.857
-10.877
-10.875
-10.899
-10.943
-10.917
-10.885
-10.841
-10.809
-10.785
-10.816
-10.962
-11.177
-11.251
-11.183
-11.037
-10.919
-10.873
-10.892
-10.936
-10.877
-10.777
-10.675
-10.643
-10.712
-10.746
-10.731
-10.769
-10.785
-10.774
-10.756
-10.771
-10.803
-10.811
-10.817
-10.82
-10.862
-11.028
-11.014
-10.91
-10.85
-10.84
-10.817
-10.788
-10.795
-10.843
-10.845
-10.782
-10.703
-10.677
-10.743
-10.861
-10.927
-10.934
-10.9
-10.902
-10.892
-10.872
-10.888
-10.9
-10.967
-10.968
-10.958
-10.978
-11.104
-11.141
-11.065
-10.953
-10.804
-10.742
-10.684
-10.693
-10.725
-10.794
-10.85
-10.795
-10.767
-10.799
-10.805
-10.765
-10.761
-10.779
-10.832
-10.88
-10.969
-11.042
-11.071
-11.07
-10.944
-10.825
-10.733
-10.717
-10.806
-10.892
-10.902
-10.846
-10.816
-10.746
-10.711
-10.702
-10.698
-10.75
-10.801
-10.804
-10.783
-10.772
-10.777
-10.803
-10.851
-10.879
-10.902
-10.913
-10.879
-10.866
-10.853
-10.84
-10.809
-10.811
-10.844
-10.898
-10.924
-10.892
-10.858
-10.839
-10.836
-10.817
-10.802
-10.798
-10.81
-10.903
-11.049
-11.07
-11.046
-11.029
-10.933
-10.82
-10.736
-10.701
-10.694
-10.681
-10.735
-10.885
-10.879
-10.817
-10.8
-10.808
-10.815
-10.833
-10.967
-11.103
-11.045
-10.988
-10.9
-10.874
-10.868
-10.825
-10.761
-10.732
-10.756
-10.804
-10.786
-10.759
-10.769
-10.757
-10.765
-10.818
-10.856
-10.885
-10.914
-10.975
-10.968
-10.914
-10.852
-10.826
-10.82
-10.889
-11.184
-11.328
-11.111
-10.873
-10.723
-10.655
-10.645
-10.689
-10.731
-10.821
-10.951
-10.914
-10.796
-10.728
-10.751
-10.88
-10.96
-10.871
-10.792
-10.765
-10.771
-10.747
-10.75
-10.758
-10.744
-10.729
-10.739
-10.766
-10.828
-10.874
-10.927
-10.969
-10.956
-10.916
-10.896
-10.908
-10.871
-10.859
-10.881
-10.93
-10.97
-10.918
-10.83
-10.766
-10.75
-10.743
-10.754
-10.774
-10.797
-10.806
-10.888
-11.026
-10.989
-10.898
-10.913
-10.926
-10.883
-10.832
-10.781
-10.736
-10.736
-10.731
-10.689
-10.671
-10.664
-10.678
-10.708
-10.732
-10.768
-10.813
-10.861
-10.968
-11.054
-11.077
-11.046
-10.973
-10.908
-10.865
-10.855
-10.862
-10.93
-10.929
-10.87
-10.812
-10.778
-10.774
-10.79
-10.824
-10.826
-10.798
-10.784
-10.769
-10.845
-10.926
-10.973
-10.938
-10.843
-10.772
-10.731
-10.801
-11.013
-11.022
-10.945
-10.864
-10.779
-10.726
-10.696
-10.697
-10.757
-10.837
-10.847
-10.873
-10.976
-11.033
-10.982
-11.044
-11.061
-10.92
-10.797
-10.698
-10.64
-10.633
-10.686
-10.742
-10.755
-10.742
-10.728
-10.747
-10.784
-10.821
-10.883
-10.904
-10.874
-10.864
-10.871
-10.909
-11.049
-11.191
-11.19
-11.107
-10.947
-10.806
-10.745
-10.788
-10.888
-10.892
-10.815
-10.805
-10.877
-10.911
-10.839
-10.766
-10.716
-10.733
-10.706
-10.669
-10.663
-10.686
-10.723
-10.755
-10.767
-10.819
-10.882
-10.851
-10.804
-10.772
-10.789
-10.853
-10.86
-10.83
-10.814
-10.844
-10.89
-10.895
-10.88
-10.867
-10.825
-10.811
-10.84
-10.931
-10.986
-10.923
-10.845
-10.913
-11.111
-11.277
-11.239
-11.007
-10.824
-10.704
-10.638
-10.604
-10.598
-10.601
-10.592
-10.59
-10.659
-10.862
-10.994
-10.96
-10.881
-10.804
-10.767
-10.761
-10.775
-10.793
-10.792
-10.787
-10.785
-10.831
-10.859
-10.851
-10.848
-10.888
-10.995
-11.045
-10.998
-10.903
-10.867
-10.931
-10.885
-10.812
-10.795
-10.852
-10.9
-10.889
-10.842
-10.802
-10.798
-10.792
-10.764
-10.732
-10.782
-10.875
-10.898
-10.853
-10.835
-10.847
-10.793
-10.758
-10.764
-10.82
-10.897
-10.891
-10.82
-10.814
-10.894
-10.863
-10.839
-10.869
-10.956
-11.049
-10.999
-10.925
-10.897
-10.843
-10.825
-10.921
-10.959
-10.887
-10.841
-10.836
-10.778
-10.72
-10.708
-10.711
-10.724
-10.697
-10.703
-10.727
-10.759
-10.804
-10.846
-10.84
-10.853
-10.851
-10.837
-10.843
-10.894
-10.911
-10.87
-10.825
-10.777
-10.777
-10.8
-10.752
-10.79
-11
-11.089
-11.011
-10.945
-10.828
-10.766
-10.752
-10.776
-10.804
-10.866
-10.927
-10.972
-10.919
-10.865
-10.871
-10.839
-10.759
-10.698
-10.677
-10.67
-10.682
-10.733
-10.812
-10.89
-10.884
-10.838
-10.796
-10.767
-10.755
-10.744
-10.75
-10.822
-10.873
-10.907
-10.902
-10.897
-11
-11.069
-10.983
-10.881
-10.837
-10.795
-10.752
-10.731
-10.791
-10.852
-10.873
-10.951
-10.981
-10.877
-10.783
-10.744
-10.721
-10.71
-10.721
-10.726
-10.766
-10.973
-11.255
-11.242
-11.13
-10.976
-10.877
-10.808
-10.768
-10.731
-10.707
-10.7
-10.694
-10.686
-10.718
-10.783
-10.871
-10.889
-10.833
-10.789
-10.773
-10.792
-10.832
-10.837
-10.86
-10.853
-10.839
-10.91
-10.973
-11.039
-11.01
-10.855
-10.752
-10.724
-10.735
-10.758
-10.782
-10.808
-10.811
-10.768
-10.768
-10.816
-10.804
-10.807
-10.882
-10.926
-10.92
-10.912
-10.885
-10.864
-10.83
-10.845
-10.87
-10.86
-10.815
-10.829
-10.816
-10.836
-10.802
-10.76
-10.81
-10.938
-10.909
-10.816
-10.778
-10.766
-10.755
-10.772
-10.812
-10.866
-10.939
-10.965
-10.893
-10.812
-10.796
-10.829
-10.88
-10.905
-10.887
-10.86
-10.824
-10.833
-10.867
-10.927
-10.948
-10.918
-10.922
-11.035
-11.074
-10.933
-10.755
-10.658
-10.639
-10.663
-10.69
-10.707
-10.73
-10.828
-10.959
-11.151
-11.195
-11.028
-10.876
-10.788
-10.72
-10.693
-10.714
-10.742
-10.721
-10.675
-10.665
-10.706
-10.865
-11.038
-11.082
-11.072
-10.989
-10.925
-10.889
-10.832
-10.781
-10.73
-10.701
-10.691
-10.724
-10.769
-10.817
-10.82
-10.799
-10.817
-10.885
-10.91
-10.933
-10.937
-10.878
-10.815
-10.801
-10.78
-10.724
-10.68
-10.691
-10.8
-10.903
-10.985
-10.95
-10.893
-10.846
-10.872
-10.852
-10.828
-10.817
-10.788
-10.76
-10.778
-10.8
-10.801
-10.807
-10.846
-10.959
-10.978
-11
-10.912
-10.833
-10.824
-10.789
-10.751
-10.74
-10.788
-10.829
-10.87
-10.915
-10.947
-11.009
-10.965
-10.926
-10.887
-10.836
-10.808
-10.857
-10.88
-10.844
-10.858
-10.843
-10.778
-10.717
-10.701
-10.764
-10.901
-10.963
-10.951
-10.84
-10.733
-10.693
-10.697
-10.706
-10.75
-10.778
-10.786
-10.838
-10.889
-10.86
-10.811
-10.786
-10.774
-10.764
-10.769
-10.813
-10.842
-10.836
-10.884
-10.966
-10.971
-10.951
-10.874
-10.829
-10.805
-10.849
-10.925
-10.936
-10.913
-10.87
-10.881
-10.997
-11.061
-11.044
-10.96
-10.859
-10.817
-10.77
-10.756
-10.756
-10.763
-10.746
-10.71
-10.681
-10.696
-10.732
-10.749
-10.741
-10.741
-10.754
-10.772
-10.817
-10.878
-10.969
-11.031
-10.973
-10.867
-10.864
-10.846
-10.8
-10.765
-10.745
-10.759
-10.789
-10.781
-10.786
-10.844
-10.854
-10.852
-10.858
-10.929
-10.958
-10.94
-10.982
-11.01
-10.952
-10.939
-11.089
-11.109
-11.069
-11.001
-10.827
-10.691
-10.633
-10.606
-10.604
-10.623
-10.701
-10.821
-10.811
-10.765
-10.724
-10.725
-10.751
-10.836
-10.905
-10.92
-10.95
-11.033
-11.085
-11.051
-10.938
-10.835
-10.774
-10.767
-10.793
-10.745
-10.715
-10.779
-10.922
-10.959
-10.903
-10.914
-10.931
-10.855
-10.789
-10.805
-10.838
-10.821
-10.786
-10.728
-10.659
-10.664
-10.779
-10.879
-10.917
-10.978
-10.969
-10.902
-10.831
-10.794
-10.805
-10.82
-10.798
-10.828
-10.803
-10.795
-10.867
-10.96
-10.953
-10.977
-10.933
-10.91
-10.968
-10.994
-10.974
-10.885
-10.83
-10.761
-10.682
-10.664
-10.663
-10.666
-10.759
-10.906
-11.039
-10.993
-10.878
-10.799
-10.737
-10.711
-10.715
-10.766
-10.842
-10.85
-10.995
-11.102
-11.041
-10.954
-10.864
-10.807
-10.803
-10.875
-10.881
-10.803
-10.707
-10.641
-10.628
-10.646
-10.677
-10.704
-10.773
-10.97
-11.073
-11.075
-10.984
-10.878
-10.801
-10.778
-10.806
-10.834
-10.905
-10.903
-10.831
-10.759
-10.725
-10.734
-10.788
-10.86
-10.951
-10.941
-10.86
-10.806
-10.843
-10.865
-10.817
-10.841
-11.03
-11.113
-11.022
-10.854
-10.777
-10.76
-10.78
-10.762
-10.805
-10.924
-10.925
-10.818
-10.761
-10.808
-10.84
-10.84
-10.868
-10.892
-10.847
-10.78
-10.767
-10.786
-10.776
-10.806
-10.998
-11.06
-10.969
-10.825
-10.739
-10.742
-10.806
-10.828
-10.808
-10.781
-10.718
-10.724
-10.78
-10.801
-10.785
-10.759
-10.771
-10.768
-10.774
-10.778
-10.773
-10.785
-10.787
-10.795
-10.844
-10.982
-11.144
-11.17
-11.096
-10.973
-10.833
-10.779
-10.779
-10.779
-10.746
-10.721
-10.704
-10.71
-10.737
-10.751
-10.767
-10.81
-10.859
-10.89
-10.88
-10.867
-10.921
-11.165
-11.183
-11.055
-10.912
-10.793
-10.731
-10.711
-10.73
-10.823
-10.956
-10.892
-10.802
-10.88
-10.942
-10.866
-10.78
-10.721
-10.693
-10.676
-10.688
-10.739
-10.812
-10.889
-10.992
-11.137
-11.103
-10.958
-10.857
-10.792
-10.77
-10.786
-10.82
-10.851
-10.777
-10.702
-10.684
-10.7
-10.723
-10.768
-10.839
-10.873
-10.872
-10.814
-10.771
-10.775
-10.782
-10.775
-10.775
-10.787
-10.818
-10.965
-11.21
-11.209
-11.006
-10.827
-10.734
-10.727
-10.778
-10.8
-10.821
-10.965
-11.122
-11.117
-10.998
-10.891
-10.804
-10.731
-10.693
-10.673
-10.66
-10.637
-10.628
-10.699
-10.806
-10.875
-10.939
-10.944
-10.928
-10.915
-10.872
-10.819
-10.774
-10.751
-10.785
-10.882
-10.961
-10.904
-10.83
-10.807
-10.792
-10.804
-10.811
-10.814
-10.89
-10.873
-10.858
-10.85
-10.795
-10.77
-10.831
-10.935
-10.936
-10.85
-10.797
-10.792
-10.813
-10.771
-10.74
-10.716
-10.718
-10.789
-10.983
-11.098
-11.126
-11.042
-10.99
-10.935
-10.816
-10.732
-10.682
-10.661
-10.644
-10.666
-10.767
-10.857
-10.92
-11.027
-11.007
-10.96
-10.911
-10.88
-10.842
-10.79
-10.785
-10.943
-11.037
-10.923
-10.82
-10.82
-10.842
-10.878
-10.92
-10.846
-10.739
-10.69
-10.708
-10.719
-10.717
-10.72
-10.72
-10.758
-10.805
-10.886
-11.067
-11.194
-11.076
-10.907
-10.78
-10.721
-10.7
-10.733
-10.809
-10.819
-10.759
-10.74
-10.75
-10.809
-10.864
-10.9
-10.947
-10.907
-10.812
-10.796
-10.769
-10.764
-10.812
-10.87
-10.921
-10.922
-10.85
-10.785
-10.753
-10.778
-10.894
-10.897
-10.824
-10.759
-10.724
-10.714
-10.733
-10.815
-10.913
-11.004
-11.046
-10.929
-10.814
-10.736
-10.704
-10.703
-10.729
-10.796
-10.845
-10.889
-10.911
-10.947
-11.022
-10.985
-10.91
-10.885
-10.947
-10.91
-10.852
-10.795
-10.738
-10.764
-10.881
-10.998
-10.961
-10.836
-10.789
-10.782
-10.789
-10.791
-10.829
-10.884
-10.984
-11.102
-11.046
-11.01
-10.935
-10.853
-10.746
-10.669
-10.647
-10.645
-10.622
-10.615
-10.628
-10.647
-10.67
-10.735
-10.87
-10.937
-10.974
-11.01
-11.05
-11.041
-10.979
-10.964
-11.041
-11.123
-11.005
-10.814
-10.68
-10.622
-10.611
-10.617
-10.626
-10.639
-10.648
-10.672
-10.808
-10.953
-10.968
-10.9
-10.853
-10.844
-10.878
-10.93
-10.901
-10.865
-10.959
-11.171
-11.164
-10.989
-10.839
-10.763
-10.739
-10.72
-10.703
-10.705
-10.689
-10.668
-10.756
-10.871
-10.868
-10.83
-10.801
-10.788
-10.779
-10.764
-10.781
-10.899
-11.032
-11.128
-11.245
-11.217
-11.083
-10.94
-10.843
-10.752
-10.718
-10.669
-10.615
-10.555
-10.526
-10.601
-10.821
-11.131
-11.204
-11.071
-10.882
-10.79
-10.755
-10.734
-10.714
-10.684
-10.663
-10.69
-10.721
-10.774
-10.862
-10.939
-10.995
-10.966
-10.872
-10.796
-10.775
-10.842
-10.885
-10.918
-10.881
-10.86
-10.891
-10.93
-10.926
-10.878
-10.816
-10.759
-10.756
-10.808
-10.838
-10.801
-10.765
-10.737
-10.733
-10.774
-10.866
-10.926
-10.899
-10.835
-10.773
-10.743
-10.735
-10.736
-10.755
-10.775
-10.767
-10.775
-10.816
-10.849
-10.883
-11.091
-11.296
-11.254
-11.204
-11.115
-11.023
-10.97
-10.996
-11.001
-10.889
-10.783
-10.692
-10.618
-10.594
-10.639
-10.801
-10.94
-10.872
-10.795
-10.767
-10.832
-10.828
-10.798
-10.772
-10.772
-10.804
-10.874
-10.945
-10.885
-10.769
-10.716
-10.742
-10.764
-10.821
-10.86
-10.863
-10.885
-10.903
-10.899
-10.89
-10.832
-10.783
-10.752
-10.764
-10.783
-10.819
-10.926
-10.94
-10.874
-10.833
-10.811
-10.805
-10.79
-10.789
-10.889
-11.066
-11.058
-10.959
-10.855
-10.821
-10.826
-10.913
-10.924
-10.81
-10.737
-10.671
-10.651
-10.662
-10.691
-10.776
-10.89
-10.951
-10.904
-10.813
-10.803
-10.834
-10.861
-10.856
-10.874
-10.941
-10.989
-11.009
-10.974
-10.907
-10.867
-10.855
-10.825
-10.78
-10.726
-10.695
-10.739
-10.793
-10.81
-10.804
-10.799
-10.815
-10.857
-10.938
-10.973
-10.941
-10.898
-10.861
-10.832
-10.836
-10.841
-10.902
-11.011
-11.155
-11.156
-11.012
-10.878
-10.833
-10.767
-10.696
-10.672
-10.657
-10.654
-10.638
-10.657
-10.679
-10.695
-10.737
-10.828
-10.985
-11.027
-10.962
-10.886
-10.866
-10.898
-10.87
-10.844
-10.964
-11.034
-11.008
-10.902
-10.803
-10.787
-10.881
-11.012
-10.964
-10.855
-10.805
-10.806
-10.772
-10.733
-10.721
-10.729
-10.732
-10.743
-10.819
-10.847
-10.848
-10.818
-10.781
-10.788
-10.8
-10.809
-10.813
-10.816
-10.808
-10.792
-10.802
-10.829
-10.909
-10.968
-11.006
-11.036
-10.997
-10.984
-10.936
-10.918
-10.912
-10.877
-10.824
-10.812
-10.911
-10.946
-10.841
-10.753
-10.709
-10.727
-10.738
-10.802
-10.902
-10.987
-10.956
-10.859
-10.806
-10.778
-10.756
-10.744
-10.734
-10.729
-10.738
-10.762
-10.866
-10.963
-11.06
-11.043
-10.971
-10.887
-10.806
-10.785
-10.768
-10.726
-10.677
-10.69
-10.792
-10.888
-10.882
-10.874
-10.949
-11.016
-10.98
-10.908
-10.849
-10.891
-10.942
-10.921
-10.886
-10.866
-10.893
-10.898
-10.893
-10.852
-10.839
-10.853
-10.873
-10.819
-10.808
-10.83
-10.817
-10.762
-10.705
-10.693
-10.711
-10.764
-10.786
-10.793
-10.787
-10.837
-10.947
-11.048
-11.051
-11
-10.981
-10.96
-10.89
-10.913
-11.002
-10.988
-10.878
-10.788
-10.762
-10.791
-10.872
-10.968
-10.929
-10.868
-10.866
-10.983
-11.022
-10.945
-10.854
-10.828
-10.79
-10.688
-10.625
-10.661
-10.743
-10.85
-10.919
-10.959
-10.893
-10.828
-10.803
-10.811
-10.808
-10.877
-10.974
-10.893
-10.796
-10.75
-10.794
-10.875
-10.883
-10.86
-10.825
-10.824
-10.886
-10.946
-10.931
-10.892
-10.884
-10.864
-10.823
-10.847
-10.843
-10.83
-10.784
-10.724
-10.698
-10.758
-10.906
-10.958
-10.936
-10.966
-10.933
-10.876
-10.836
-10.861
-10.882
-10.957
-11.01
-10.919
-10.797
-10.72
-10.699
-10.694
-10.679
-10.671
-10.713
-10.875
-11.019
-11.025
-11.017
-11.002
-10.917
-10.862
-10.825
-10.805
-10.779
-10.769
-10.773
-10.803
-10.983
-11.136
-11.144
-11.061
-10.955
-10.872
-10.777
-10.722
-10.692
-10.704
-10.717
-10.698
-10.724
-10.775
-10.817
-10.874
-10.932
-10.934
-10.904
-10.855
-10.822
-10.846
-10.878
-10.906
-10.936
-10.889
-10.795
-10.721
-10.721
-10.754
-10.796
-10.852
-10.948
-11.08
-11.134
-11.056
-10.998
-10.948
-10.902
-10.825
-10.756
-10.781
-10.913
-10.963
-10.965
-10.886
-10.77
-10.724
-10.726
-10.761
-10.757
-10.748
-10.736
-10.712
-10.693
-10.697
-10.729
-10.789
-10.835
-10.832
-10.807
-10.783
-10.771
-10.783
-10.823
-10.873
-10.917
-11.028
-11.118
-11.1
-11.049
-10.933
-10.847
-10.811
-10.769
-10.781
-10.969
-11.197
-11.175
-11.037
-10.92
-10.81
-10.853
-10.971
-11.004
-10.881
-10.716
-10.609
-10.583
-10.642
-10.69
-10.701
-10.723
-10.75
-10.755
-10.778
-10.925
-11.148
-11.306
-11.282
-11.068
-10.884
-10.742
-10.673
-10.64
-10.626
-10.639
-10.686
-10.766
-10.773
-10.782
-10.797
-10.826
-10.85
-10.852
-10.884
-10.962
-10.986
-10.935
-10.896
-10.89
-10.883
-10.956
-10.929
-10.846
-10.811
-10.796
-10.81
-10.883
-10.941
-10.917
-10.858
-10.799
-10.763
-10.747
-10.738
-10.745
-10.745
-10.77
-10.867
-10.923
-10.853
-10.76
-10.701
-10.668
-10.679
-10.739
-10.732
-10.713
-10.73
-10.762
-10.797
-10.878
-10.983
-11.107
-11.148
-11.053
-10.984
-11.003
-11.018
-11.001
-10.941
-10.913
-10.929
-11.061
-11.161
-11.122
-11.056
-10.97
-10.886
-10.788
-10.79
-10.826
-10.81
-10.759
-10.752
-10.786
-10.8
-10.776
-10.751
-10.748
-10.718
-10.685
-10.732
-10.97
-11.154
-11.081
-10.911
-10.787
-10.712
-10.703
-10.767
-10.812
-10.814
-10.764
-10.734
-10.739
-10.768
-10.849
-10.853
-10.848
-10.863
-10.859
-10.828
-10.796
-10.767
-10.749
-10.743
-10.758
-10.781
-10.818
-10.873
-10.888
-10.913
-10.926
-10.92
-10.871
-10.846
-10.851
-10.854
-10.862
-10.874
-10.865
-10.922
-11.073
-11.142
-11.088
-10.967
-10.838
-10.789
-10.806
-10.876
-10.911
-10.94
-10.909
-10.832
-10.779
-10.76
-10.767
-10.794
-10.8
-10.783
-10.758
-10.762
-10.803
-10.865
-10.887
-10.862
-10.906
-10.883
-10.828
-10.79
-10.828
-10.891
-10.897
-10.829
-10.778
-10.807
-10.913
-10.993
-10.964
-10.883
-10.793
-10.784
-10.853
-10.871
-10.844
-10.858
-10.896
-10.915
-10.91
-10.909
-10.893
-10.852
-10.85
-10.842
-10.819
-10.78
-10.781
-10.794
-10.876
-10.968
-10.975
-10.9
-10.829
-10.779
-10.78
-10.857
-10.9
-10.862
-10.826
-10.823
-10.792
-10.742
-10.708
-10.695
-10.687
-10.698
-10.716
-10.721
-10.731
-10.778
-10.858
-10.985
-11.051
-11.017
-10.967
-10.948
-11.045
-11.12
-11.197
-11.097
-10.898
-10.765
-10.702
-10.689
-10.686
-10.697
-10.769
-10.912
-10.903
-10.83
-10.78
-10.77
-10.775
-10.804
-10.83
-10.877
-10.991
-11.124
-11.121
-10.978
-10.893
-10.812
-10.767
-10.768
-10.757
-10.721
-10.701
-10.752
-10.903
-11.139
-11.186
-11.045
-10.907
-10.809
-10.769
-10.751
-10.752
-10.747
-10.737
-10.817
-10.995
-11.019
-10.981
-10.928
-10.895
-10.824
-10.755
-10.727
-10.763
-10.803
-10.8
-10.824
-10.818
-10.78
-10.73
-10.735
-10.757
-10.781
-10.82
-10.899
-10.974
-10.945
-10.875
-10.859
-10.881
-10.877
-10.902
-10.907
-10.88
-10.867
-10.806
-10.751
-10.734
-10.74
-10.761
-10.846
-10.929
-10.92
-10.882
-10.844
-10.839
-10.889
-10.971
-11.09
-11.15
-11.027
-10.877
-10.752
-10.702
-10.7
-10.733
-10.911
-11.145
-11.214
-11.072
-10.919
-10.796
-10.769
-10.796
-10.799
-10.767
-10.751
-10.732
-10.71
-10.73
-10.781
-10.861
-10.903
-10.922
-10.933
-10.943
-10.903
-10.869
-10.914
-10.977
-10.921
-10.851
-10.838
-10.874
-10.879
-10.871
-10.787
-10.72
-10.693
-10.698
-10.724
-10.741
-10.763
-10.775
-10.789
-10.869
-10.98
-11.077
-11.125
-11.041
-10.897
-10.812
-10.859
-10.882
-10.787
-10.71
-10.726
-10.798
-10.845
-10.842
-10.85
-10.875
-10.848
-10.9
-10.931
-10.893
-10.938
-11.016
-10.982
-10.881
-10.783
-10.735
-10.725
-10.738
-10.816
-10.889
-10.87
-10.877
-10.888
-10.936
-11.064
-11.12
-11.084
-11.054
-10.973
-10.859
-10.794
-10.852
-10.895
-10.879
-10.884
-10.861
-10.792
-10.714
-10.657
-10.629
-10.637
-10.7
-10.741
-10.905
-11.11
-11.09
-10.959
-10.871
-10.882
-10.808
-10.749
-10.727
-10.802
-10.883
-11.036
-11.133
-11.068
-10.961
-10.838
-10.77
-10.739
-10.743
-10.741
-10.768
-10.899
-11.008
-11.03
-11.007
-10.925
-10.862
-10.816
-10.774
-10.732
-10.688
-10.654
-10.655
-10.671
-10.681
-10.714
-10.812
-10.839
-10.834
-10.857
-10.947
-11.012
-10.975
-10.902
-10.842
-10.802
-10.778
-10.807
-10.821
-10.829
-10.862
-10.947
-11.007
-11.036
-11.008
-10.958
-10.915
-10.94
-10.956
-10.995
-10.936
-10.788
-10.733
-10.712
-10.705
-10.687
-10.692
-10.722
-10.793
-10.85
-10.864
-10.927
-11.049
-11.05
-10.968
-10.929
-10.968
-10.964
-10.928
-10.915
-10.909
-10.882
-10.823
-10.747
-10.711
-10.713
-10.738
-10.828
-10.868
-10.816
-10.777
-10.77
-10.794
-10.801
-10.917
-11.054
-11.016
-10.941
-10.905
-10.863
-10.827
-10.772
-10.76
-10.836
-10.928
-10.872
-10.803
-10.845
-10.891
-10.91
-10.899
-10.921
-11.002
-10.993
-10.864
-10.771
-10.776
-10.822
-10.879
-10.952
-11.048
-10.967
-10.882
-10.792
-10.881
-10.985
-10.956
-10.869
-10.763
-10.703
-10.706
-10.719
-10.759
-10.754
-10.735
-10.733
-10.728
-10.725
-10.735
-10.772
-10.856
-10.937
-11.102
-11.213
-11.095
-10.958
-10.881
-10.865
-10.824
-10.779
-10.733
-10.73
-10.767
-10.807
-10.811
-10.796
-10.82
-10.895
-10.956
-10.956
-11.002
-11.001
-10.97
-11.018
-11.098
-11.027
-10.921
-10.853
-10.772
-10.741
-10.718
-10.69
-10.699
-10.688
-10.715
-10.734
-10.744
-10.747
-10.761
-10.806
-10.859
-10.875
-10.874
-10.871
-10.886
-11.029
-11.164
-11.141
-11.028
-10.953
-10.996
-10.929
-10.844
-10.768
-10.736
-10.751
-10.775
-10.747
-10.739
-10.776
-10.86
-11.032
-11.147
-11.023
-10.888
-10.825
-10.814
-10.786
-10.763
-10.759
-10.748
-10.747
-10.805
-10.839
-10.855
-10.892
-10.858
-10.8
-10.748
-10.746
-10.719
-10.766
-10.855
-10.885
-10.926
-10.937
-10.995
-11.026
-11.037
-11.04
-10.919
-10.826
-10.791
-10.763
-10.756
-10.779
-10.826
-10.839
-10.911
-11.099
-11.129
-11.06
-10.978
-10.929
-10.848
-10.794
-10.817
-10.79
-10.731
-10.67
-10.681
-10.83
-11.053
-11.052
-10.936
-10.869
-10.875
-10.865
-10.879
-10.877
-10.939
-11.03
-11.004
-10.921
-10.822
-10.799
-10.788
-10.766
-10.763
-10.754
-10.72
-10.718
-10.799
-10.918
-11.022
-11.018
-10.925
-10.88
-10.873
-10.817
-10.769
-10.716
-10.681
-10.699
-10.832
-10.954
-10.945
-10.907
-10.856
-10.827
-10.804
-10.789
-10.779
-10.78
-10.837
-10.906
-10.907
-10.855
-10.807
-10.79
-10.809
-10.796
-10.787
-10.81
-10.849
-10.92
-11.066
-11.204
-11.102
-10.958
-10.859
-10.83
-10.84
-10.863
-10.909
-10.913
-10.794
-10.686
-10.639
-10.649
-10.677
-10.748
-10.811
-10.825
-10.826
-10.836
-10.855
-10.888
-10.938
-11.01
-11.149
-11.151
-10.995
-10.876
-10.82
-10.768
-10.758
-10.798
-10.821
-10.874
-10.961
-10.988
-10.964
-10.907
-10.881
-10.982
-11.217
-11.243
-11.047
-10.833
-10.707
-10.721
-10.902
-10.988
-10.901
-10.781
-10.663
-10.599
-10.597
-10.642
-10.726
-10.756
-10.743
-10.753
-10.765
-10.817
-10.836
-10.832
-10.828
-10.82
-10.801
-10.787
-10.778
-10.776
-10.78
-10.796
-10.922
-11.066
-11.027
-10.962
-11.041
-11.133
-11.059
-10.957
-10.876
-10.842
-10.939
-11.04
-10.995
-10.863
-10.743
-10.679
-10.66
-10.685
-10.711
-10.706
-10.737
-10.926
-11.166
-11.131
-10.985
-10.849
-10.791
-10.789
-10.874
-10.977
-10.923
-10.847
-10.853
-10.908
-10.893
-10.879
-10.875
-10.838
-10.782
-10.729
-10.695
-10.692
-10.763
-10.869
-10.926
-10.892
-10.854
-10.823
-10.803
-10.798
-10.878
-10.99
-10.999
-10.935
-10.838
-10.789
-10.778
-10.805
-10.871
-10.958
-10.955
-10.92
-10.832
-10.748
-10.728
-10.744
-10.757
-10.786
-10.861
-10.913
-10.92
-10.888
-10.848
-10.868
-10.935
-11.094
-11.08
-10.98
-10.85
-10.772
-10.767
-10.768
-10.757
-10.803
-10.784
-10.716
-10.701
-10.733
-10.806
-10.891
-11.097
-11.309
-11.258
-11.118
-10.947
-10.838
-10.823
-10.814
-10.755
-10.7
-10.677
-10.714
-10.783
-10.828
-10.845
-10.846
-10.875
-10.897
-10.943
-11.006
-11.025
-10.956
-10.856
-10.78
-10.737
-10.755
-10.848
-10.899
-10.895
-10.963
-11.218
-11.352
-11.296
-11.085
-10.893
-10.815
-10.804
-10.782
-10.736
-10.673
-10.626
-10.671
-10.712
-10.763
-10.794
-10.766
-10.724
-10.715
-10.726
-10.733
-10.747
-10.773
-10.782
-10.802
-10.891
-11.016
-11.06
-10.973
-10.881
-10.808
-10.758
-10.735
-10.798
-10.969
-10.984
-10.881
-10.826
-10.773
-10.783
-10.765
-10.763
-10.782
-10.788
-10.782
-10.79
-10.886
-11.017
-11.017
-10.989
-10.957
-10.941
-10.947
-10.902
-10.841
-10.813
-10.783
-10.747
-10.732
-10.746
-10.78
-10.833
-10.903
-10.927
-10.947
-10.946
-10.908
-10.887
-11.027
-11.278
-11.189
-11.02
-10.838
-10.73
-10.688
-10.683
-10.704
-10.794
-10.888
-10.852
-10.779
-10.805
-10.871
-10.915
-10.943
-10.944
-10.988
-11.075
-11.091
-10.941
-10.798
-10.753
-10.748
-10.753
-10.757
-10.735
-10.723
-10.73
-10.765
-10.863
-10.968
-10.997
-10.91
-10.829
-10.789
-10.839
-10.964
-10.997
-10.924
-10.866
-10.811
-10.8
-10.827
-10.833
-10.803
-10.771
-10.741
-10.753
-10.787
-10.781
-10.791
-10.791
-10.832
-10.916
-10.925
-10.948
-10.955
-10.911
-10.86
-10.812
-10.792
-10.811
-10.847
-10.865
-10.932
-10.957
-10.925
-10.865
-10.844
-10.855
-10.856
-10.841
-10.919
-11.044
-11.128
-11.067
-10.986
-10.894
-10.825
-10.808
-10.825
-10.94
-11.077
-11.02
-10.909
-10.831
-10.713
-10.645
-10.674
-10.725
